Time,Amplitude
0,-1.20E-04
0.0005,9.63E-04
0.001,1.79E-03
0.0015,2.45E-03
0.002,3.01E-03
0.0025,3.50E-03
0.003,3.93E-03
0.0035,4.33E-03
0.004,4.70E-03
0.0045,5.05E-03
0.005,5.37E-03
0.0055,5.68E-03
0.006,5.97E-03
0.0065,6.25E-03
0.007,6.51E-03
0.0075,6.77E-03
0.008,7.01E-03
0.0085,7.24E-03
0.009,7.47E-03
0.0095,7.68E-03
0.01,7.89E-03
0.0105,8.09E-03
0.011,8.28E-03
0.0115,8.47E-03
0.012,8.66E-03
0.0125,8.83E-03
0.013,9.01E-03
0.0135,9.18E-03
0.014,9.35E-03
0.0145,9.51E-03
0.015,9.67E-03
0.0155,9.83E-03
0.016,9.98E-03
0.0165,1.01E-02
0.017,1.03E-02
0.0175,1.04E-02
0.018,1.06E-02
0.0185,1.07E-02
0.019,1.09E-02
0.0195,1.11E-02
0.02,1.12E-02
0.0205,1.14E-02
0.021,1.15E-02
0.0215,1.17E-02
0.022,1.18E-02
0.0225,1.20E-02
0.023,1.21E-02
0.0235,1.23E-02
0.024,1.24E-02
0.0245,1.26E-02
0.025,1.28E-02
0.0255,1.29E-02
0.026,1.31E-02
0.0265,1.33E-02
0.027,1.35E-02
0.0275,1.36E-02
0.028,1.38E-02
0.0285,1.40E-02
0.029,1.42E-02
0.0295,1.44E-02
0.03,1.46E-02
0.0305,1.48E-02
0.031,1.50E-02
0.0315,1.52E-02
0.032,1.54E-02
0.0325,1.56E-02
0.033,1.59E-02
0.0335,1.61E-02
0.034,1.63E-02
0.0345,1.65E-02
0.035,1.68E-02
0.0355,1.70E-02
0.036,1.73E-02
0.0365,1.75E-02
0.037,1.78E-02
0.0375,1.81E-02
0.038,1.83E-02
0.0385,1.86E-02
0.039,1.89E-02
0.0395,1.92E-02
0.04,1.94E-02
0.0405,1.97E-02
0.041,2.00E-02
0.0415,2.04E-02
0.042,2.07E-02
0.0425,2.10E-02
0.043,2.13E-02
0.0435,2.16E-02
0.044,2.20E-02
0.0445,2.23E-02
0.045,2.27E-02
0.0455,2.30E-02
0.046,2.34E-02
0.0465,2.37E-02
0.047,2.41E-02
0.0475,2.45E-02
0.048,2.49E-02
0.0485,2.53E-02
0.049,2.57E-02
0.0495,2.61E-02
0.05,2.65E-02
0.0505,2.69E-02
0.051,2.73E-02
0.0515,2.77E-02
0.052,2.82E-02
0.0525,2.86E-02
0.053,2.91E-02
0.0535,2.95E-02
0.054,3.00E-02
0.0545,3.05E-02
0.055,3.09E-02
0.0555,3.14E-02
0.056,3.19E-02
0.0565,3.24E-02
0.057,3.29E-02
0.0575,3.34E-02
0.058,3.39E-02
0.0585,3.44E-02
0.059,3.50E-02
0.0595,3.55E-02
0.06,3.61E-02
0.0605,3.66E-02
0.061,3.72E-02
0.0615,3.78E-02
0.062,3.83E-02
0.0625,3.89E-02
0.063,3.95E-02
0.0635,4.01E-02
0.064,4.08E-02
0.0645,4.14E-02
0.065,4.20E-02
0.0655,4.27E-02
0.066,4.33E-02
0.0665,4.40E-02
0.067,4.47E-02
0.0675,4.54E-02
0.068,4.61E-02
0.0685,4.68E-02
0.069,4.75E-02
0.0695,4.82E-02
0.07,4.90E-02
0.0705,4.97E-02
0.071,5.04E-02
0.0715,5.11E-02
0.072,5.18E-02
0.0725,5.24E-02
0.073,5.30E-02
0.0735,5.36E-02
0.074,5.41E-02
0.0745,5.45E-02
0.075,5.47E-02
0.0755,5.48E-02
0.076,5.47E-02
0.0765,5.43E-02
0.077,5.36E-02
0.0775,5.24E-02
0.078,5.07E-02
0.0785,4.84E-02
0.079,4.53E-02
0.0795,4.11E-02
0.08,3.58E-02
0.0805,2.90E-02
0.081,2.06E-02
0.0815,1.04E-02
0.082,-1.79E-03
0.0825,-1.57E-02
0.083,-3.09E-02
0.0835,-4.64E-02
0.084,-6.06E-02
0.0845,-7.17E-02
0.085,-7.78E-02
0.0855,-7.76E-02
0.086,-7.04E-02
0.0865,-5.58E-02
0.087,-3.34E-02
0.0875,-2.18E-03
0.088,4.09E-02
0.0885,1.03E-01
0.089,2.00E-01
0.0895,3.57E-01
0.09,5.40E-01
0.0905,5.75E-01
0.091,4.85E-01
0.0915,3.81E-01
0.092,2.96E-01
0.0925,2.30E-01
0.093,1.80E-01
0.0935,1.41E-01
0.094,1.11E-01
0.0945,8.59E-02
0.095,6.57E-02
0.0955,4.87E-02
0.096,3.43E-02
0.0965,2.18E-02
0.097,1.06E-02
0.0975,5.17E-04
0.098,-8.91E-03
0.0985,-1.79E-02
0.099,-2.68E-02
0.0995,-3.58E-02
0.1,-4.51E-02
0.1005,-5.52E-02
0.101,-6.61E-02
0.1015,-7.81E-02
0.102,-9.16E-02
0.1025,-1.07E-01
0.103,-1.23E-01
0.1035,-1.41E-01
0.104,-1.60E-01
0.1045,-1.79E-01
0.105,-1.96E-01
0.1055,-2.09E-01
0.106,-2.19E-01
0.1065,-2.24E-01
0.107,-2.24E-01
0.1075,-2.19E-01
0.108,-2.11E-01
0.1085,-1.99E-01
0.109,-1.86E-01
0.1095,-1.72E-01
0.11,-1.57E-01
0.1105,-1.41E-01
0.111,-1.26E-01
0.1115,-1.11E-01
0.112,-9.56E-02
0.1125,-8.10E-02
0.113,-6.67E-02
0.1135,-5.27E-02
0.114,-3.90E-02
0.1145,-2.54E-02
0.115,-1.21E-02
0.1155,1.18E-03
0.116,1.43E-02
0.1165,2.74E-02
0.117,4.03E-02
0.1175,5.31E-02
0.118,6.57E-02
0.1185,7.77E-02
0.119,8.92E-02
0.1195,9.97E-02
0.12,1.09E-01
0.1205,1.17E-01
0.121,1.23E-01
0.1215,1.27E-01
0.122,1.29E-01
0.1225,1.30E-01
0.123,1.29E-01
0.1235,1.26E-01
0.124,1.22E-01
0.1245,1.18E-01
0.125,1.13E-01
0.1255,1.07E-01
0.126,1.01E-01
0.1265,9.57E-02
0.127,9.02E-02
0.1275,8.49E-02
0.128,7.99E-02
0.1285,7.52E-02
0.129,7.08E-02
0.1295,6.67E-02
0.13,6.30E-02
0.1305,5.96E-02
0.131,5.65E-02
0.1315,5.37E-02
0.132,5.11E-02
0.1325,4.88E-02
0.133,4.67E-02
0.1335,4.47E-02
0.134,4.29E-02
0.1345,4.13E-02
0.135,3.97E-02
0.1355,3.81E-02
0.136,3.65E-02
0.1365,3.48E-02
0.137,3.30E-02
0.1375,3.09E-02
0.138,2.85E-02
0.1385,2.56E-02
0.139,2.21E-02
0.1395,1.79E-02
0.14,1.27E-02
0.1405,6.48E-03
0.141,-9.83E-04
0.1415,-9.81E-03
0.142,-2.00E-02
0.1425,-3.15E-02
0.143,-4.38E-02
0.1435,-5.62E-02
0.144,-6.76E-02
0.1445,-7.67E-02
0.145,-8.21E-02
0.1455,-8.28E-02
0.146,-7.81E-02
0.1465,-6.76E-02
0.147,-5.13E-02
0.1475,-2.87E-02
0.148,1.03E-03
0.1485,4.01E-02
0.149,9.34E-02
0.1495,1.70E-01
0.15,2.85E-01
0.1505,4.34E-01
0.151,5.22E-01
0.1515,4.87E-01
0.152,4.02E-01
0.1525,3.19E-01
0.153,2.51E-01
0.1535,1.97E-01
0.154,1.56E-01
0.1545,1.23E-01
0.155,9.60E-02
0.1555,7.43E-02
0.156,5.63E-02
0.1565,4.09E-02
0.157,2.76E-02
0.1575,1.57E-02
0.158,4.74E-03
0.1585,-5.58E-03
0.159,-1.57E-02
0.1595,-2.58E-02
0.16,-3.65E-02
0.1605,-4.80E-02
0.161,-6.07E-02
0.1615,-7.50E-02
0.162,-9.13E-02
0.1625,-1.10E-01
0.163,-1.30E-01
0.1635,-1.53E-01
0.164,-1.76E-01
0.1645,-1.97E-01
0.165,-2.16E-01
0.1655,-2.29E-01
0.166,-2.35E-01
0.1665,-2.36E-01
0.167,-2.31E-01
0.1675,-2.21E-01
0.168,-2.08E-01
0.1685,-1.93E-01
0.169,-1.76E-01
0.1695,-1.59E-01
0.17,-1.42E-01
0.1705,-1.25E-01
0.171,-1.08E-01
0.1715,-9.15E-02
0.172,-7.53E-02
0.1725,-5.95E-02
0.173,-4.39E-02
0.1735,-2.86E-02
0.174,-1.33E-02
0.1745,1.91E-03
0.175,1.71E-02
0.1755,3.24E-02
0.176,4.76E-02
0.1765,6.27E-02
0.177,7.75E-02
0.1775,9.18E-02
0.178,1.05E-01
0.1785,1.17E-01
0.179,1.27E-01
0.1795,1.35E-01
0.18,1.40E-01
0.1805,1.43E-01
0.181,1.43E-01
0.1815,1.41E-01
0.182,1.37E-01
0.1825,1.32E-01
0.183,1.26E-01
0.1835,1.19E-01
0.184,1.12E-01
0.1845,1.05E-01
0.185,9.86E-02
0.1855,9.21E-02
0.186,8.58E-02
0.1865,8.00E-02
0.187,7.45E-02
0.1875,6.95E-02
0.188,6.48E-02
0.1885,6.06E-02
0.189,5.67E-02
0.1895,5.32E-02
0.19,5.00E-02
0.1905,4.71E-02
0.191,4.46E-02
0.1915,4.23E-02
0.192,4.03E-02
0.1925,3.85E-02
0.193,3.70E-02
0.1935,3.56E-02
0.194,3.45E-02
0.1945,3.36E-02
0.195,3.28E-02
0.1955,3.22E-02
0.196,3.17E-02
0.1965,3.13E-02
0.197,3.10E-02
0.1975,3.08E-02
0.198,3.07E-02
0.1985,3.06E-02
0.199,3.05E-02
0.1995,3.04E-02
0.2,3.03E-02
0.2005,3.01E-02
0.201,2.97E-02
0.2015,2.92E-02
0.202,2.84E-02
0.2025,2.73E-02
0.203,2.57E-02
0.2035,2.37E-02
0.204,2.11E-02
0.2045,1.77E-02
0.205,1.34E-02
0.2055,8.24E-03
0.206,1.99E-03
0.2065,-5.32E-03
0.207,-1.36E-02
0.2075,-2.26E-02
0.208,-3.19E-02
0.2085,-4.07E-02
0.209,-4.82E-02
0.2095,-5.32E-02
0.21,-5.46E-02
0.2105,-5.16E-02
0.211,-4.35E-02
0.2115,-2.96E-02
0.212,-9.30E-03
0.2125,1.88E-02
0.213,5.71E-02
0.2135,1.11E-01
0.214,1.90E-01
0.2145,3.07E-01
0.215,4.50E-01
0.2155,5.20E-01
0.216,4.75E-01
0.2165,3.90E-01
0.217,3.08E-01
0.2175,2.42E-01
0.218,1.90E-01
0.2185,1.50E-01
0.219,1.17E-01
0.2195,9.11E-02
0.22,6.96E-02
0.2205,5.13E-02
0.221,3.54E-02
0.2215,2.10E-02
0.222,7.33E-03
0.2225,-6.16E-03
0.223,-2.02E-02
0.2235,-3.54E-02
0.224,-5.25E-02
0.2245,-7.25E-02
0.225,-9.61E-02
0.2255,-1.24E-01
0.226,-1.56E-01
0.2265,-1.90E-01
0.227,-2.24E-01
0.2275,-2.52E-01
0.228,-2.71E-01
0.2285,-2.79E-01
0.229,-2.77E-01
0.2295,-2.67E-01
0.23,-2.52E-01
0.2305,-2.34E-01
0.231,-2.14E-01
0.2315,-1.93E-01
0.232,-1.72E-01
0.2325,-1.52E-01
0.233,-1.32E-01
0.2335,-1.13E-01
0.234,-9.48E-02
0.2345,-7.72E-02
0.235,-6.01E-02
0.2355,-4.33E-02
0.236,-2.68E-02
0.2365,-1.05E-02
0.237,5.82E-03
0.2375,2.21E-02
0.238,3.85E-02
0.2385,5.47E-02
0.239,7.08E-02
0.2395,8.63E-02
0.24,1.01E-01
0.2405,1.14E-01
0.241,1.26E-01
0.2415,1.35E-01
0.242,1.42E-01
0.2425,1.46E-01
0.243,1.47E-01
0.2435,1.47E-01
0.244,1.44E-01
0.2445,1.40E-01
0.245,1.34E-01
0.2455,1.28E-01
0.246,1.22E-01
0.2465,1.15E-01
0.247,1.08E-01
0.2475,1.02E-01
0.248,9.54E-02
0.2485,8.92E-02
0.249,8.33E-02
0.2495,7.77E-02
0.25,7.24E-02
0.2505,6.75E-02
0.251,6.28E-02
0.2515,5.85E-02
0.252,5.45E-02
0.2525,5.07E-02
0.253,4.73E-02
0.2535,4.41E-02
0.254,4.12E-02
0.2545,3.85E-02
0.255,3.60E-02
0.2555,3.38E-02
0.256,3.18E-02
0.2565,2.99E-02
0.257,2.83E-02
0.2575,2.68E-02
0.258,2.54E-02
0.2585,2.42E-02
0.259,2.32E-02
0.2595,2.22E-02
0.26,2.14E-02
0.2605,2.08E-02
0.261,2.02E-02
0.2615,1.97E-02
0.262,1.93E-02
0.2625,1.90E-02
0.263,1.88E-02
0.2635,1.87E-02
0.264,1.86E-02
0.2645,1.87E-02
0.265,1.88E-02
0.2655,1.89E-02
0.266,1.91E-02
0.2665,1.94E-02
0.267,1.98E-02
0.2675,2.02E-02
0.268,2.06E-02
0.2685,2.11E-02
0.269,2.17E-02
0.2695,2.23E-02
0.27,2.30E-02
0.2705,2.37E-02
0.271,2.44E-02
0.2715,2.52E-02
0.272,2.61E-02
0.2725,2.69E-02
0.273,2.79E-02
0.2735,2.88E-02
0.274,2.98E-02
0.2745,3.09E-02
0.275,3.19E-02
0.2755,3.30E-02
0.276,3.41E-02
0.2765,3.53E-02
0.277,3.65E-02
0.2775,3.76E-02
0.278,3.88E-02
0.2785,4.00E-02
0.279,4.12E-02
0.2795,4.24E-02
0.28,4.35E-02
0.2805,4.46E-02
0.281,4.55E-02
0.2815,4.64E-02
0.282,4.72E-02
0.2825,4.78E-02
0.283,4.81E-02
0.2835,4.82E-02
0.284,4.79E-02
0.2845,4.72E-02
0.285,4.60E-02
0.2855,4.41E-02
0.286,4.14E-02
0.2865,3.77E-02
0.287,3.29E-02
0.2875,2.68E-02
0.288,1.92E-02
0.2885,1.01E-02
0.289,-5.91E-04
0.2895,-1.26E-02
0.29,-2.53E-02
0.2905,-3.78E-02
0.291,-4.87E-02
0.2915,-5.66E-02
0.292,-5.98E-02
0.2925,-5.72E-02
0.293,-4.80E-02
0.2935,-3.16E-02
0.294,-7.07E-03
0.2945,2.77E-02
0.295,7.71E-02
0.2955,1.51E-01
0.296,2.69E-01
0.2965,4.42E-01
0.297,5.66E-01
0.2975,5.29E-01
0.298,4.30E-01
0.2985,3.36E-01
0.299,2.61E-01
0.2995,2.03E-01
0.3,1.59E-01
0.3005,1.24E-01
0.301,9.65E-02
0.3015,7.40E-02
0.302,5.52E-02
0.3025,3.93E-02
0.303,2.53E-02
0.3035,1.28E-02
0.304,1.18E-03
0.3045,-9.98E-03
0.305,-2.11E-02
0.3055,-3.26E-02
0.306,-4.50E-02
0.3065,-5.86E-02
0.307,-7.40E-02
0.3075,-9.16E-02
0.308,-1.12E-01
0.3085,-1.35E-01
0.309,-1.60E-01
0.3095,-1.85E-01
0.31,-2.10E-01
0.3105,-2.30E-01
0.311,-2.45E-01
0.3115,-2.52E-01
0.312,-2.52E-01
0.3125,-2.46E-01
0.313,-2.35E-01
0.3135,-2.21E-01
0.314,-2.04E-01
0.3145,-1.87E-01
0.315,-1.69E-01
0.3155,-1.51E-01
0.316,-1.33E-01
0.3165,-1.16E-01
0.317,-9.95E-02
0.3175,-8.34E-02
0.318,-6.78E-02
0.3185,-5.26E-02
0.319,-3.77E-02
0.3195,-2.31E-02
0.32,-8.66E-03
0.3205,5.65E-03
0.321,1.99E-02
0.3215,3.40E-02
0.322,4.79E-02
0.3225,6.16E-02
0.323,7.49E-02
0.3235,8.75E-02
0.324,9.91E-02
0.3245,1.09E-01
0.325,1.18E-01
0.3255,1.25E-01
0.326,1.30E-01
0.3265,1.32E-01
0.327,1.33E-01
0.3275,1.32E-01
0.328,1.29E-01
0.3285,1.26E-01
0.329,1.21E-01
0.3295,1.16E-01
0.33,1.10E-01
0.3305,1.04E-01
0.331,9.85E-02
0.3315,9.28E-02
0.332,8.73E-02
0.3325,8.20E-02
0.333,7.69E-02
0.3335,7.22E-02
0.334,6.78E-02
0.3345,6.37E-02
0.335,5.98E-02
0.3355,5.63E-02
0.336,5.31E-02
0.3365,5.01E-02
0.337,4.74E-02
0.3375,4.50E-02
0.338,4.28E-02
0.3385,4.08E-02
0.339,3.90E-02
0.3395,3.75E-02
0.34,3.61E-02
0.3405,3.49E-02
0.341,3.39E-02
0.3415,3.30E-02
0.342,3.23E-02
0.3425,3.18E-02
0.343,3.13E-02
0.3435,3.10E-02
0.344,3.09E-02
0.3445,3.08E-02
0.345,3.08E-02
0.3455,3.10E-02
0.346,3.12E-02
0.3465,3.15E-02
0.347,3.19E-02
0.3475,3.23E-02
0.348,3.29E-02
0.3485,3.34E-02
0.349,3.40E-02
0.3495,3.47E-02
0.35,3.53E-02
0.3505,3.60E-02
0.351,3.66E-02
0.3515,3.72E-02
0.352,3.77E-02
0.3525,3.82E-02
0.353,3.84E-02
0.3535,3.85E-02
0.354,3.83E-02
0.3545,3.77E-02
0.355,3.68E-02
0.3555,3.54E-02
0.356,3.33E-02
0.3565,3.05E-02
0.357,2.68E-02
0.3575,2.21E-02
0.358,1.62E-02
0.3585,9.11E-03
0.359,7.55E-04
0.3595,-8.72E-03
0.36,-1.90E-02
0.3605,-2.94E-02
0.361,-3.90E-02
0.3615,-4.67E-02
0.362,-5.12E-02
0.3625,-5.14E-02
0.363,-4.61E-02
0.3635,-3.48E-02
0.364,-1.66E-02
0.3645,9.55E-03
0.365,4.62E-02
0.3655,9.82E-02
0.366,1.76E-01
0.3665,2.96E-01
0.367,4.54E-01
0.3675,5.43E-01
0.368,4.97E-01
0.3685,4.05E-01
0.369,3.18E-01
0.3695,2.49E-01
0.37,1.94E-01
0.3705,1.52E-01
0.371,1.19E-01
0.3715,9.23E-02
0.372,7.05E-02
0.3725,5.20E-02
0.373,3.61E-02
0.3735,2.18E-02
0.374,8.56E-03
0.3745,-4.28E-03
0.375,-1.73E-02
0.3755,-3.10E-02
0.376,-4.62E-02
0.3765,-6.35E-02
0.377,-8.36E-02
0.3775,-1.07E-01
0.378,-1.34E-01
0.3785,-1.65E-01
0.379,-1.97E-01
0.3795,-2.27E-01
0.38,-2.51E-01
0.3805,-2.67E-01
0.381,-2.73E-01
0.3815,-2.70E-01
0.382,-2.60E-01
0.3825,-2.45E-01
0.383,-2.28E-01
0.3835,-2.08E-01
0.384,-1.88E-01
0.3845,-1.68E-01
0.385,-1.49E-01
0.3855,-1.30E-01
0.386,-1.12E-01
0.3865,-9.41E-02
0.387,-7.70E-02
0.3875,-6.05E-02
0.388,-4.44E-02
0.3885,-2.86E-02
0.389,-1.30E-02
0.3895,2.51E-03
0.39,1.80E-02
0.3905,3.34E-02
0.391,4.87E-02
0.3915,6.38E-02
0.392,7.85E-02
0.3925,9.25E-02
0.393,1.05E-01
0.3935,1.17E-01
0.394,1.26E-01
0.3945,1.33E-01
0.395,1.38E-01
0.3955,1.41E-01
0.396,1.41E-01
0.3965,1.39E-01
0.397,1.36E-01
0.3975,1.32E-01
0.398,1.27E-01
0.3985,1.21E-01
0.399,1.15E-01
0.3995,1.08E-01
0.4,1.02E-01
0.4005,9.61E-02
0.401,9.02E-02
0.4015,8.45E-02
0.402,7.91E-02
0.4025,7.40E-02
0.403,6.92E-02
0.4035,6.46E-02
0.404,6.04E-02
0.4045,5.65E-02
0.405,5.28E-02
0.4055,4.95E-02
0.406,4.64E-02
0.4065,4.35E-02
0.407,4.09E-02
0.4075,3.85E-02
0.408,3.63E-02
0.4085,3.44E-02
0.409,3.26E-02
0.4095,3.10E-02
0.41,2.95E-02
0.4105,2.83E-02
0.411,2.71E-02
0.4115,2.61E-02
0.412,2.53E-02
0.4125,2.45E-02
0.413,2.39E-02
0.4135,2.34E-02
0.414,2.30E-02
0.4145,2.27E-02
0.415,2.25E-02
0.4155,2.23E-02
0.416,2.23E-02
0.4165,2.23E-02
0.417,2.24E-02
0.4175,2.26E-02
0.418,2.29E-02
0.4185,2.32E-02
0.419,2.36E-02
0.4195,2.40E-02
0.42,2.45E-02
0.4205,2.51E-02
0.421,2.57E-02
0.4215,2.64E-02
0.422,2.71E-02
0.4225,2.79E-02
0.423,2.87E-02
0.4235,2.96E-02
0.424,3.05E-02
0.4245,3.14E-02
0.425,3.24E-02
0.4255,3.34E-02
0.426,3.45E-02
0.4265,3.56E-02
0.427,3.67E-02
0.4275,3.78E-02
0.428,3.89E-02
0.4285,4.00E-02
0.429,4.12E-02
0.4295,4.22E-02
0.43,4.33E-02
0.4305,4.43E-02
0.431,4.52E-02
0.4315,4.59E-02
0.432,4.66E-02
0.4325,4.70E-02
0.433,4.72E-02
0.4335,4.70E-02
0.434,4.65E-02
0.4345,4.54E-02
0.435,4.38E-02
0.4355,4.14E-02
0.436,3.82E-02
0.4365,3.39E-02
0.437,2.84E-02
0.4375,2.14E-02
0.438,1.30E-02
0.4385,3.07E-03
0.439,-8.26E-03
0.4395,-2.05E-02
0.44,-3.30E-02
0.4405,-4.44E-02
0.441,-5.33E-02
0.4415,-5.82E-02
0.442,-5.77E-02
0.4425,-5.11E-02
0.443,-3.75E-02
0.4435,-1.62E-02
0.444,1.42E-02
0.4445,5.71E-02
0.445,1.20E-01
0.4455,2.17E-01
0.446,3.71E-01
0.4465,5.34E-01
0.447,5.55E-01
0.4475,4.68E-01
0.448,3.69E-01
0.4485,2.87E-01
0.449,2.24E-01
0.4495,1.75E-01
0.45,1.37E-01
0.4505,1.06E-01
0.451,8.21E-02
0.4515,6.20E-02
0.452,4.50E-02
0.4525,3.04E-02
0.453,1.73E-02
0.4535,5.26E-03
0.454,-6.18E-03
0.4545,-1.75E-02
0.455,-2.91E-02
0.4555,-4.14E-02
0.456,-5.50E-02
0.4565,-7.03E-02
0.457,-8.79E-02
0.4575,-1.08E-01
0.458,-1.31E-01
0.4585,-1.56E-01
0.459,-1.83E-01
0.4595,-2.08E-01
0.46,-2.30E-01
0.4605,-2.46E-01
0.461,-2.54E-01
0.4615,-2.55E-01
0.462,-2.49E-01
0.4625,-2.38E-01
0.463,-2.24E-01
0.4635,-2.08E-01
0.464,-1.90E-01
0.4645,-1.72E-01
0.465,-1.54E-01
0.4655,-1.36E-01
0.466,-1.18E-01
0.4665,-1.01E-01
0.467,-8.51E-02
0.4675,-6.93E-02
0.468,-5.40E-02
0.4685,-3.89E-02
0.469,-2.42E-02
0.4695,-9.60E-03
0.47,4.84E-03
0.4705,1.92E-02
0.471,3.34E-02
0.4715,4.75E-02
0.472,6.14E-02
0.4725,7.48E-02
0.473,8.76E-02
0.4735,9.94E-02
0.474,1.10E-01
0.4745,1.19E-01
0.475,1.26E-01
0.4755,1.30E-01
0.476,1.33E-01
0.4765,1.34E-01
0.477,1.33E-01
0.4775,1.30E-01
0.478,1.26E-01
0.4785,1.22E-01
0.479,1.16E-01
0.4795,1.11E-01
0.48,1.05E-01
0.4805,9.90E-02
0.481,9.33E-02
0.4815,8.77E-02
0.482,8.24E-02
0.4825,7.73E-02
0.483,7.25E-02
0.4835,6.80E-02
0.484,6.39E-02
0.4845,6.00E-02
0.485,5.64E-02
0.4855,5.31E-02
0.486,5.01E-02
0.4865,4.74E-02
0.487,4.49E-02
0.4875,4.26E-02
0.488,4.06E-02
0.4885,3.88E-02
0.489,3.71E-02
0.4895,3.57E-02
0.49,3.45E-02
0.4905,3.34E-02
0.491,3.25E-02
0.4915,3.17E-02
0.492,3.11E-02
0.4925,3.06E-02
0.493,3.02E-02
0.4935,3.00E-02
0.494,2.99E-02
0.4945,2.98E-02
0.495,2.99E-02
0.4955,3.01E-02
0.496,3.04E-02
0.4965,3.07E-02
0.497,3.11E-02
0.4975,3.16E-02
0.498,3.22E-02
0.4985,3.28E-02
0.499,3.35E-02
0.4995,3.42E-02
0.5,3.49E-02
0.5005,3.57E-02
0.501,3.65E-02
0.5015,3.72E-02
0.502,3.79E-02
0.5025,3.85E-02
0.503,3.91E-02
0.5035,3.95E-02
0.504,3.97E-02
0.5045,3.97E-02
0.505,3.94E-02
0.5055,3.88E-02
0.506,3.76E-02
0.5065,3.59E-02
0.507,3.36E-02
0.5075,3.04E-02
0.508,2.62E-02
0.5085,2.09E-02
0.509,1.44E-02
0.5095,6.64E-03
0.51,-2.39E-03
0.5105,-1.25E-02
0.511,-2.31E-02
0.5115,-3.35E-02
0.512,-4.27E-02
0.5125,-4.93E-02
0.513,-5.21E-02
0.5135,-4.99E-02
0.514,-4.20E-02
0.5145,-2.75E-02
0.515,-5.66E-03
0.5155,2.53E-02
0.516,6.87E-02
0.5165,1.32E-01
0.517,2.29E-01
0.5175,3.76E-01
0.518,5.20E-01
0.5185,5.35E-01
0.519,4.53E-01
0.5195,3.60E-01
0.52,2.81E-01
0.5205,2.20E-01
0.521,1.72E-01
0.5215,1.35E-01
0.522,1.05E-01
0.5225,8.08E-02
0.523,6.08E-02
0.5235,4.37E-02
0.524,2.88E-02
0.5245,1.52E-02
0.525,2.29E-03
0.5255,-1.04E-02
0.526,-2.35E-02
0.5265,-3.75E-02
0.527,-5.32E-02
0.5275,-7.13E-02
0.528,-9.23E-02
0.5285,-1.17E-01
0.529,-1.45E-01
0.5295,-1.76E-01
0.53,-2.07E-01
0.5305,-2.35E-01
0.531,-2.56E-01
0.5315,-2.69E-01
0.532,-2.71E-01
0.5325,-2.66E-01
0.533,-2.54E-01
0.5335,-2.39E-01
0.534,-2.21E-01
0.5345,-2.01E-01
0.535,-1.81E-01
0.5355,-1.62E-01
0.536,-1.42E-01
0.5365,-1.24E-01
0.537,-1.06E-01
0.5375,-8.86E-02
0.538,-7.18E-02
0.5385,-5.56E-02
0.539,-3.97E-02
0.5395,-2.41E-02
0.54,-8.60E-03
0.5405,6.77E-03
0.541,2.21E-02
0.5415,3.73E-02
0.542,5.25E-02
0.5425,6.73E-02
0.543,8.17E-02
0.5435,9.52E-02
0.544,1.08E-01
0.5445,1.18E-01
0.545,1.27E-01
0.5455,1.34E-01
0.546,1.38E-01
0.5465,1.40E-01
0.547,1.40E-01
0.5475,1.38E-01
0.548,1.34E-01
0.5485,1.30E-01
0.549,1.25E-01
0.5495,1.19E-01
0.55,1.13E-01
0.5505,1.06E-01
0.551,1.00E-01
0.5515,9.43E-02
0.552,8.85E-02
0.5525,8.29E-02
0.553,7.76E-02
0.5535,7.26E-02
0.554,6.79E-02
0.5545,6.35E-02
0.555,5.94E-02
0.5555,5.56E-02
0.556,5.20E-02
0.5565,4.88E-02
0.557,4.58E-02
0.5575,4.30E-02
0.558,4.05E-02
0.5585,3.82E-02
0.559,3.61E-02
0.5595,3.42E-02
0.56,3.25E-02
0.5605,3.10E-02
0.561,2.96E-02
0.5615,2.84E-02
0.562,2.73E-02
0.5625,2.64E-02
0.563,2.56E-02
0.5635,2.49E-02
0.564,2.44E-02
0.5645,2.39E-02
0.565,2.36E-02
0.5655,2.33E-02
0.566,2.31E-02
0.5665,2.31E-02
0.567,2.31E-02
0.5675,2.32E-02
0.568,2.33E-02
0.5685,2.36E-02
0.569,2.39E-02
0.5695,2.42E-02
0.57,2.47E-02
0.5705,2.52E-02
0.571,2.57E-02
0.5715,2.63E-02
0.572,2.70E-02
0.5725,2.77E-02
0.573,2.85E-02
0.5735,2.93E-02
0.574,3.02E-02
0.5745,3.11E-02
0.575,3.21E-02
0.5755,3.31E-02
0.576,3.41E-02
0.5765,3.51E-02
0.577,3.62E-02
0.5775,3.73E-02
0.578,3.84E-02
0.5785,3.95E-02
0.579,4.06E-02
0.5795,4.17E-02
0.58,4.27E-02
0.5805,4.37E-02
0.581,4.46E-02
0.5815,4.54E-02
0.582,4.60E-02
0.5825,4.65E-02
0.583,4.67E-02
0.5835,4.66E-02
0.584,4.61E-02
0.5845,4.52E-02
0.585,4.36E-02
0.5855,4.14E-02
0.586,3.83E-02
0.5865,3.41E-02
0.587,2.88E-02
0.5875,2.21E-02
0.588,1.40E-02
0.5885,4.28E-03
0.589,-6.79E-03
0.5895,-1.89E-02
0.59,-3.12E-02
0.5905,-4.27E-02
0.591,-5.19E-02
0.5915,-5.73E-02
0.592,-5.75E-02
0.5925,-5.17E-02
0.593,-3.91E-02
0.5935,-1.89E-02
0.594,1.02E-02
0.5945,5.11E-02
0.595,1.10E-01
0.5955,2.02E-01
0.596,3.47E-01
0.5965,5.17E-01
0.597,5.61E-01
0.5975,4.81E-01
0.598,3.81E-01
0.5985,2.97E-01
0.599,2.31E-01
0.5995,1.80E-01
0.6,1.41E-01
0.6005,1.10E-01
0.601,8.50E-02
0.6015,6.44E-02
0.602,4.71E-02
0.6025,3.21E-02
0.603,1.88E-02
0.6035,6.65E-03
0.604,-4.91E-03
0.6045,-1.63E-02
0.605,-2.80E-02
0.6055,-4.04E-02
0.606,-5.40E-02
0.6065,-6.94E-02
0.607,-8.70E-02
0.6075,-1.07E-01
0.608,-1.30E-01
0.6085,-1.56E-01
0.609,-1.83E-01
0.6095,-2.09E-01
0.61,-2.31E-01
0.6105,-2.47E-01
0.611,-2.55E-01
0.6115,-2.56E-01
0.612,-2.50E-01
0.6125,-2.39E-01
0.613,-2.25E-01
0.6135,-2.08E-01
0.614,-1.90E-01
0.6145,-1.72E-01
0.615,-1.54E-01
0.6155,-1.36E-01
0.616,-1.18E-01
0.6165,-1.02E-01
0.617,-8.52E-02
0.6175,-6.93E-02
0.618,-5.39E-02
0.6185,-3.88E-02
0.619,-2.40E-02
0.6195,-9.33E-03
0.62,5.17E-03
0.6205,1.96E-02
0.621,3.39E-02
0.6215,4.81E-02
0.622,6.20E-02
0.6225,7.55E-02
0.623,8.83E-02
0.6235,1.00E-01
0.624,1.11E-01
0.6245,1.19E-01
0.625,1.26E-01
0.6255,1.31E-01
0.626,1.34E-01
0.6265,1.34E-01
0.627,1.33E-01
0.6275,1.30E-01
0.628,1.26E-01
0.6285,1.22E-01
0.629,1.16E-01
0.6295,1.11E-01
0.63,1.05E-01
0.6305,9.90E-02
0.631,9.32E-02
0.6315,8.77E-02
0.632,8.23E-02
0.6325,7.72E-02
0.633,7.24E-02
0.6335,6.80E-02
0.634,6.38E-02
0.6345,5.99E-02
0.635,5.63E-02
0.6355,5.30E-02
0.636,5.00E-02
0.6365,4.72E-02
0.637,4.47E-02
0.6375,4.24E-02
0.638,4.04E-02
0.6385,3.86E-02
0.639,3.69E-02
0.6395,3.55E-02
0.64,3.42E-02
0.6405,3.31E-02
0.641,3.22E-02
0.6415,3.14E-02
0.642,3.07E-02
0.6425,3.02E-02
0.643,2.98E-02
0.6435,2.96E-02
0.644,2.94E-02
0.6445,2.94E-02
0.645,2.94E-02
0.6455,2.96E-02
0.646,2.98E-02
0.6465,3.01E-02
0.647,3.06E-02
0.6475,3.10E-02
0.648,3.16E-02
0.6485,3.22E-02
0.649,3.29E-02
0.6495,3.36E-02
0.65,3.43E-02
0.6505,3.51E-02
0.651,3.59E-02
0.6515,3.67E-02
0.652,3.75E-02
0.6525,3.82E-02
0.653,3.89E-02
0.6535,3.95E-02
0.654,4.00E-02
0.6545,4.03E-02
0.655,4.04E-02
0.6555,4.01E-02
0.656,3.96E-02
0.6565,3.86E-02
0.657,3.70E-02
0.6575,3.48E-02
0.658,3.17E-02
0.6585,2.77E-02
0.659,2.27E-02
0.6595,1.64E-02
0.66,8.79E-03
0.6605,-8.21E-05
0.661,-1.01E-02
0.6615,-2.08E-02
0.662,-3.14E-02
0.6625,-4.11E-02
0.663,-4.84E-02
0.6635,-5.21E-02
0.664,-5.10E-02
0.6645,-4.43E-02
0.665,-3.11E-02
0.6655,-1.07E-02
0.666,1.85E-02
0.6665,5.93E-02
0.667,1.18E-01
0.6675,2.08E-01
0.668,3.47E-01
0.6685,5.03E-01
0.669,5.44E-01
0.6695,4.71E-01
0.67,3.76E-01
0.6705,2.94E-01
0.671,2.29E-01
0.6715,1.79E-01
0.672,1.40E-01
0.6725,1.10E-01
0.673,8.46E-02
0.6735,6.40E-02
0.674,4.65E-02
0.6745,3.13E-02
0.675,1.75E-02
0.6755,4.64E-03
0.676,-7.95E-03
0.6765,-2.08E-02
0.677,-3.45E-02
0.6775,-4.96E-02
0.678,-6.69E-02
0.6785,-8.69E-02
0.679,-1.10E-01
0.6795,-1.37E-01
0.68,-1.67E-01
0.6805,-1.98E-01
0.681,-2.27E-01
0.6815,-2.51E-01
0.682,-2.65E-01
0.6825,-2.70E-01
0.683,-2.67E-01
0.6835,-2.57E-01
0.684,-2.43E-01
0.6845,-2.25E-01
0.685,-2.06E-01
0.6855,-1.87E-01
0.686,-1.67E-01
0.6865,-1.48E-01
0.687,-1.29E-01
0.6875,-1.11E-01
0.688,-9.33E-02
0.6885,-7.65E-02
0.689,-6.02E-02
0.6895,-4.43E-02
0.69,-2.86E-02
0.6905,-1.32E-02
0.691,2.13E-03
0.6915,1.74E-02
0.692,3.26E-02
0.6925,4.77E-02
0.693,6.26E-02
0.6935,7.70E-02
0.694,9.08E-02
0.6945,1.04E-01
0.695,1.15E-01
0.6955,1.24E-01
0.696,1.32E-01
0.6965,1.36E-01
0.697,1.39E-01
0.6975,1.40E-01
0.698,1.38E-01
0.6985,1.35E-01
0.699,1.31E-01
0.6995,1.26E-01
0.7,1.20E-01
0.7005,1.14E-01
0.701,1.08E-01
0.7015,1.02E-01
0.702,9.60E-02
0.7025,9.01E-02
0.703,8.45E-02
0.7035,7.91E-02
0.704,7.40E-02
0.7045,6.93E-02
0.705,6.48E-02
0.7055,6.06E-02
0.706,5.67E-02
0.7065,5.31E-02
0.707,4.98E-02
0.7075,4.68E-02
0.708,4.40E-02
0.7085,4.14E-02
0.709,3.90E-02
0.7095,3.69E-02
0.71,3.50E-02
0.7105,3.32E-02
0.711,3.17E-02
0.7115,3.03E-02
0.712,2.90E-02
0.7125,2.79E-02
0.713,2.70E-02
0.7135,2.61E-02
0.714,2.54E-02
0.7145,2.49E-02
0.715,2.44E-02
0.7155,2.40E-02
0.716,2.38E-02
0.7165,2.36E-02
0.717,2.35E-02
0.7175,2.35E-02
0.718,2.36E-02
0.7185,2.38E-02
0.719,2.40E-02
0.7195,2.43E-02
0.72,2.47E-02
0.7205,2.51E-02
0.721,2.56E-02
0.7215,2.62E-02
0.722,2.68E-02
0.7225,2.75E-02
0.723,2.82E-02
0.7235,2.90E-02
0.724,2.98E-02
0.7245,3.07E-02
0.725,3.16E-02
0.7255,3.25E-02
0.726,3.35E-02
0.7265,3.46E-02
0.727,3.56E-02
0.7275,3.67E-02
0.728,3.78E-02
0.7285,3.89E-02
0.729,4.00E-02
0.7295,4.11E-02
0.73,4.21E-02
0.7305,4.31E-02
0.731,4.40E-02
0.7315,4.49E-02
0.732,4.55E-02
0.7325,4.61E-02
0.733,4.64E-02
0.7335,4.64E-02
0.734,4.60E-02
0.7345,4.53E-02
0.735,4.40E-02
0.7355,4.20E-02
0.736,3.92E-02
0.7365,3.55E-02
0.737,3.06E-02
0.7375,2.44E-02
0.738,1.69E-02
0.7385,7.76E-03
0.739,-2.79E-03
0.7395,-1.45E-02
0.74,-2.68E-02
0.7405,-3.86E-02
0.741,-4.87E-02
0.7415,-5.55E-02
0.742,-5.77E-02
0.7425,-5.41E-02
0.743,-4.40E-02
0.7435,-2.66E-02
0.744,-9.17E-04
0.7445,3.53E-02
0.745,8.69E-02
0.7455,1.65E-01
0.746,2.89E-01
0.7465,4.62E-01
0.747,5.64E-01
0.7475,5.15E-01
0.748,4.15E-01
0.7485,3.24E-01
0.749,2.52E-01
0.7495,1.97E-01
0.75,1.54E-01
0.7505,1.20E-01
0.751,9.33E-02
0.7515,7.13E-02
0.752,5.29E-02
0.7525,3.72E-02
0.753,2.33E-02
0.7535,1.08E-02
0.754,-9.67E-04
0.7545,-1.24E-02
0.755,-2.40E-02
0.7555,-3.63E-02
0.756,-4.96E-02
0.7565,-6.45E-02
0.757,-8.15E-02
0.7575,-1.01E-01
0.758,-1.24E-01
0.7585,-1.49E-01
0.759,-1.76E-01
0.7595,-2.02E-01
0.76,-2.26E-01
0.7605,-2.44E-01
0.761,-2.54E-01
0.7615,-2.57E-01
0.762,-2.53E-01
0.7625,-2.43E-01
0.763,-2.30E-01
0.7635,-2.13E-01
0.764,-1.96E-01
0.7645,-1.77E-01
0.765,-1.59E-01
0.7655,-1.41E-01
0.766,-1.23E-01
0.7665,-1.06E-01
0.767,-8.96E-02
0.7675,-7.35E-02
0.768,-5.80E-02
0.7685,-4.27E-02
0.769,-2.78E-02
0.7695,-1.31E-02
0.77,1.45E-03
0.7705,1.59E-02
0.771,3.03E-02
0.7715,4.46E-02
0.772,5.86E-02
0.7725,7.23E-02
0.773,8.53E-02
0.7735,9.74E-02
0.774,1.08E-01
0.7745,1.18E-01
0.775,1.25E-01
0.7755,1.30E-01
0.776,1.33E-01
0.7765,1.35E-01
0.777,1.34E-01
0.7775,1.31E-01
0.778,1.28E-01
0.7785,1.23E-01
0.779,1.18E-01
0.7795,1.12E-01
0.78,1.06E-01
0.7805,1.01E-01
0.781,9.48E-02
0.7815,8.91E-02
0.782,8.37E-02
0.7825,7.85E-02
0.783,7.37E-02
0.7835,6.91E-02
0.784,6.48E-02
0.7845,6.09E-02
0.785,5.72E-02
0.7855,5.38E-02
0.786,5.07E-02
0.7865,4.79E-02
0.787,4.53E-02
0.7875,4.29E-02
0.788,4.08E-02
0.7885,3.89E-02
0.789,3.72E-02
0.7895,3.57E-02
0.79,3.44E-02
0.7905,3.32E-02
0.791,3.22E-02
0.7915,3.14E-02
0.792,3.07E-02
0.7925,3.01E-02
0.793,2.97E-02
0.7935,2.94E-02
0.794,2.92E-02
0.7945,2.91E-02
0.795,2.91E-02
0.7955,2.92E-02
0.796,2.94E-02
0.7965,2.97E-02
0.797,3.01E-02
0.7975,3.05E-02
0.798,3.10E-02
0.7985,3.16E-02
0.799,3.23E-02
0.7995,3.30E-02
0.8,3.37E-02
0.8005,3.45E-02
0.801,3.53E-02
0.8015,3.61E-02
0.802,3.70E-02
0.8025,3.78E-02
0.803,3.85E-02
0.8035,3.92E-02
0.804,3.99E-02
0.8045,4.03E-02
0.805,4.07E-02
0.8055,4.08E-02
0.806,4.06E-02
0.8065,4.00E-02
0.807,3.90E-02
0.8075,3.75E-02
0.808,3.53E-02
0.8085,3.23E-02
0.809,2.84E-02
0.8095,2.33E-02
0.81,1.71E-02
0.8105,9.51E-03
0.811,6.49E-04
0.8115,-9.36E-03
0.812,-2.01E-02
0.8125,-3.09E-02
0.813,-4.07E-02
0.8135,-4.82E-02
0.814,-5.22E-02
0.8145,-5.14E-02
0.815,-4.50E-02
0.8155,-3.21E-02
0.816,-1.20E-02
0.8165,1.68E-02
0.817,5.72E-02
0.8175,1.15E-01
0.818,2.04E-01
0.8185,3.41E-01
0.819,4.99E-01
0.8195,5.46E-01
0.82,4.75E-01
0.8205,3.79E-01
0.821,2.97E-01
0.8215,2.32E-01
0.822,1.81E-01
0.8225,1.42E-01
0.823,1.11E-01
0.8235,8.54E-02
0.824,6.47E-02
0.8245,4.71E-02
0.825,3.18E-02
0.8255,1.81E-02
0.826,5.18E-03
0.8265,-7.35E-03
0.827,-2.01E-02
0.8275,-3.36E-02
0.828,-4.86E-02
0.8285,-6.55E-02
0.829,-8.52E-02
0.8295,-1.08E-01
0.83,-1.35E-01
0.8305,-1.64E-01
0.831,-1.95E-01
0.8315,-2.24E-01
0.832,-2.48E-01
0.8325,-2.64E-01
0.833,-2.70E-01
0.8335,-2.67E-01
0.834,-2.58E-01
0.8345,-2.44E-01
0.835,-2.27E-01
0.8355,-2.08E-01
0.836,-1.88E-01
0.8365,-1.69E-01
0.837,-1.49E-01
0.8375,-1.31E-01
0.838,-1.13E-01
0.8385,-9.52E-02
0.839,-7.83E-02
0.8395,-6.20E-02
0.84,-4.61E-02
0.8405,-3.04E-02
0.841,-1.50E-02
0.8415,2.68E-04
0.842,1.55E-02
0.8425,3.07E-02
0.843,4.57E-02
0.8435,6.06E-02
0.844,7.51E-02
0.8445,8.89E-02
0.845,1.02E-01
0.8455,1.13E-01
0.846,1.23E-01
0.8465,1.30E-01
0.847,1.36E-01
0.8475,1.39E-01
0.848,1.39E-01
0.8485,1.38E-01
0.849,1.35E-01
0.8495,1.31E-01
0.85,1.26E-01
0.8505,1.21E-01
0.851,1.15E-01
0.8515,1.09E-01
0.852,1.03E-01
0.8525,9.66E-02
0.853,9.07E-02
0.8535,8.51E-02
0.854,7.97E-02
0.8545,7.46E-02
0.855,6.98E-02
0.8555,6.53E-02
0.856,6.11E-02
0.8565,5.72E-02
0.857,5.36E-02
0.8575,5.03E-02
0.858,4.72E-02
0.8585,4.44E-02
0.859,4.18E-02
0.8595,3.94E-02
0.86,3.73E-02
0.8605,3.53E-02
0.861,3.36E-02
0.8615,3.20E-02
0.862,3.06E-02
0.8625,2.93E-02
0.863,2.82E-02
0.8635,2.73E-02
0.864,2.64E-02
0.8645,2.57E-02
0.865,2.52E-02
0.8655,2.47E-02
0.866,2.43E-02
0.8665,2.41E-02
0.867,2.39E-02
0.8675,2.38E-02
0.868,2.38E-02
0.8685,2.39E-02
0.869,2.41E-02
0.8695,2.43E-02
0.87,2.46E-02
0.8705,2.50E-02
0.871,2.54E-02
0.8715,2.59E-02
0.872,2.65E-02
0.8725,2.71E-02
0.873,2.78E-02
0.8735,2.86E-02
0.874,2.93E-02
0.8745,3.02E-02
0.875,3.11E-02
0.8755,3.20E-02
0.876,3.30E-02
0.8765,3.40E-02
0.877,3.50E-02
0.8775,3.61E-02
0.878,3.71E-02
0.8785,3.82E-02
0.879,3.93E-02
0.8795,4.04E-02
0.88,4.14E-02
0.8805,4.25E-02
0.881,4.34E-02
0.8815,4.43E-02
0.882,4.50E-02
0.8825,4.56E-02
0.883,4.60E-02
0.8835,4.62E-02
0.884,4.60E-02
0.8845,4.55E-02
0.885,4.44E-02
0.8855,4.28E-02
0.886,4.04E-02
0.8865,3.71E-02
0.887,3.28E-02
0.8875,2.73E-02
0.888,2.04E-02
0.8885,1.20E-02
0.889,2.19E-03
0.8895,-8.99E-03
0.89,-2.10E-02
0.8905,-3.32E-02
0.891,-4.42E-02
0.8915,-5.27E-02
0.892,-5.71E-02
0.8925,-5.63E-02
0.893,-4.92E-02
0.8935,-3.53E-02
0.894,-1.37E-02
0.8945,1.72E-02
0.895,6.08E-02
0.8955,1.25E-01
0.896,2.24E-01
0.8965,3.79E-01
0.897,5.37E-01
0.8975,5.50E-01
0.898,4.62E-01
0.8985,3.64E-01
0.899,2.83E-01
0.8995,2.21E-01
0.9,1.73E-01
0.9005,1.35E-01
0.901,1.05E-01
0.9015,8.10E-02
0.902,6.10E-02
0.9025,4.42E-02
0.903,2.95E-02
0.9035,1.64E-02
0.904,4.35E-03
0.9045,-7.24E-03
0.905,-1.88E-02
0.9055,-3.07E-02
0.906,-4.36E-02
0.9065,-5.78E-02
0.907,-7.39E-02
0.9075,-9.25E-02
0.908,-1.14E-01
0.9085,-1.38E-01
0.909,-1.65E-01
0.9095,-1.92E-01
0.91,-2.17E-01
0.9105,-2.38E-01
0.911,-2.52E-01
0.9115,-2.58E-01
0.912,-2.56E-01
0.9125,-2.48E-01
0.913,-2.36E-01
0.9135,-2.21E-01
0.914,-2.03E-01
0.9145,-1.85E-01
0.915,-1.67E-01
0.9155,-1.48E-01
0.916,-1.30E-01
0.9165,-1.13E-01
0.917,-9.62E-02
0.9175,-7.99E-02
0.918,-6.41E-02
0.9185,-4.88E-02
0.919,-3.37E-02
0.9195,-1.89E-02
0.92,-4.27E-03
0.9205,1.03E-02
0.921,2.47E-02
0.9215,3.91E-02
0.922,5.32E-02
0.9225,6.71E-02
0.923,8.04E-02
0.9235,9.30E-02
0.924,1.04E-01
0.9245,1.14E-01
0.925,1.23E-01
0.9255,1.29E-01
0.926,1.33E-01
0.9265,1.35E-01
0.927,1.34E-01
0.9275,1.33E-01
0.928,1.29E-01
0.9285,1.25E-01
0.929,1.20E-01
0.9295,1.15E-01
0.93,1.09E-01
0.9305,1.03E-01
0.931,9.71E-02
0.9315,9.14E-02
0.932,8.58E-02
0.9325,8.06E-02
0.933,7.56E-02
0.9335,7.09E-02
0.934,6.65E-02
0.9345,6.24E-02
0.935,5.86E-02
0.9355,5.51E-02
0.936,5.19E-02
0.9365,4.89E-02
0.937,4.62E-02
0.9375,4.38E-02
0.938,4.16E-02
0.9385,3.96E-02
0.939,3.78E-02
0.9395,3.62E-02
0.94,3.48E-02
0.9405,3.35E-02
0.941,3.25E-02
0.9415,3.15E-02
0.942,3.08E-02
0.9425,3.02E-02
0.943,2.97E-02
0.9435,2.93E-02
0.944,2.90E-02
0.9445,2.89E-02
0.945,2.88E-02
0.9455,2.89E-02
0.946,2.91E-02
0.9465,2.93E-02
0.947,2.96E-02
0.9475,3.00E-02
0.948,3.05E-02
0.9485,3.11E-02
0.949,3.17E-02
0.9495,3.24E-02
0.95,3.31E-02
0.9505,3.39E-02
0.951,3.47E-02
0.9515,3.55E-02
0.952,3.64E-02
0.9525,3.72E-02
0.953,3.80E-02
0.9535,3.88E-02
0.954,3.95E-02
0.9545,4.01E-02
0.955,4.06E-02
0.9555,4.10E-02
0.956,4.10E-02
0.9565,4.09E-02
0.957,4.03E-02
0.9575,3.93E-02
0.958,3.77E-02
0.9585,3.55E-02
0.959,3.25E-02
0.9595,2.85E-02
0.96,2.34E-02
0.9605,1.71E-02
0.961,9.46E-03
0.9615,5.11E-04
0.962,-9.58E-03
0.9625,-2.04E-02
0.963,-3.12E-02
0.9635,-4.10E-02
0.964,-4.85E-02
0.9645,-5.24E-02
0.965,-5.15E-02
0.9655,-4.48E-02
0.966,-3.17E-02
0.9665,-1.12E-02
0.967,1.79E-02
0.9675,5.89E-02
0.968,1.18E-01
0.9685,2.09E-01
0.969,3.48E-01
0.9695,5.05E-01
0.97,5.45E-01
0.9705,4.71E-01
0.971,3.76E-01
0.9715,2.94E-01
0.972,2.29E-01
0.9725,1.79E-01
0.973,1.40E-01
0.9735,1.09E-01
0.974,8.45E-02
0.9745,6.39E-02
0.975,4.64E-02
0.9755,3.12E-02
0.976,1.75E-02
0.9765,4.71E-03
0.977,-7.78E-03
0.9775,-2.05E-02
0.978,-3.40E-02
0.9785,-4.89E-02
0.979,-6.58E-02
0.9795,-8.54E-02
0.98,-1.08E-01
0.9805,-1.35E-01
0.981,-1.64E-01
0.9815,-1.95E-01
0.982,-2.24E-01
0.9825,-2.47E-01
0.983,-2.63E-01
0.9835,-2.69E-01
0.984,-2.67E-01
0.9845,-2.58E-01
0.985,-2.44E-01
0.9855,-2.27E-01
0.986,-2.08E-01
0.9865,-1.88E-01
0.987,-1.69E-01
0.9875,-1.50E-01
0.988,-1.31E-01
0.9885,-1.13E-01
0.989,-9.54E-02
0.9895,-7.85E-02
0.99,-6.22E-02
0.9905,-4.63E-02
0.991,-3.07E-02
0.9915,-1.53E-02
0.992,-5.81E-05
0.9925,1.51E-02
0.993,3.03E-02
0.9935,4.53E-02
0.994,6.01E-02
0.9945,7.46E-02
0.995,8.84E-02
0.9955,1.01E-01
0.996,1.13E-01
0.9965,1.22E-01
0.997,1.30E-01
0.9975,1.35E-01
0.998,1.38E-01
0.9985,1.39E-01
0.999,1.38E-01
0.9995,1.35E-01
1,1.31E-01
1.0005,1.26E-01
1.001,1.21E-01
1.0015,1.15E-01
1.002,1.09E-01
1.0025,1.03E-01
1.003,9.67E-02
1.0035,9.08E-02
1.004,8.52E-02
1.0045,7.98E-02
1.005,7.47E-02
1.0055,6.99E-02
1.006,6.54E-02
1.0065,6.12E-02
1.007,5.73E-02
1.0075,5.37E-02
1.008,5.04E-02
1.0085,4.73E-02
1.009,4.45E-02
1.0095,4.19E-02
1.01,3.95E-02
1.0105,3.74E-02
1.011,3.54E-02
1.0115,3.37E-02
1.012,3.21E-02
1.0125,3.07E-02
1.013,2.95E-02
1.0135,2.84E-02
1.014,2.74E-02
1.0145,2.66E-02
1.015,2.59E-02
1.0155,2.53E-02
1.016,2.49E-02
1.0165,2.45E-02
1.017,2.43E-02
1.0175,2.41E-02
1.018,2.40E-02
1.0185,2.40E-02
1.019,2.41E-02
1.0195,2.43E-02
1.02,2.46E-02
1.0205,2.49E-02
1.021,2.53E-02
1.0215,2.57E-02
1.022,2.62E-02
1.0225,2.68E-02
1.023,2.75E-02
1.0235,2.81E-02
1.024,2.89E-02
1.0245,2.97E-02
1.025,3.05E-02
1.0255,3.14E-02
1.026,3.24E-02
1.0265,3.33E-02
1.027,3.43E-02
1.0275,3.54E-02
1.028,3.64E-02
1.0285,3.75E-02
1.029,3.86E-02
1.0295,3.97E-02
1.03,4.07E-02
1.0305,4.18E-02
1.031,4.28E-02
1.0315,4.37E-02
1.032,4.45E-02
1.0325,4.52E-02
1.033,4.57E-02
1.0335,4.60E-02
1.034,4.60E-02
1.0345,4.57E-02
1.035,4.49E-02
1.0355,4.36E-02
1.036,4.16E-02
1.0365,3.88E-02
1.037,3.51E-02
1.0375,3.02E-02
1.038,2.41E-02
1.0385,1.65E-02
1.039,7.47E-03
1.0395,-3.02E-03
1.04,-1.47E-02
1.0405,-2.68E-02
1.041,-3.85E-02
1.0415,-4.85E-02
1.042,-5.52E-02
1.0425,-5.72E-02
1.043,-5.35E-02
1.0435,-4.33E-02
1.044,-2.58E-02
1.0445,-8.87E-05
1.045,3.62E-02
1.0455,8.80E-02
1.046,1.66E-01
1.0465,2.90E-01
1.047,4.63E-01
1.0475,5.63E-01
1.048,5.13E-01
1.0485,4.14E-01
1.049,3.23E-01
1.0495,2.52E-01
1.05,1.96E-01
1.0505,1.54E-01
1.051,1.20E-01
1.0515,9.30E-02
1.052,7.11E-02
1.0525,5.27E-02
1.053,3.70E-02
1.0535,2.31E-02
1.054,1.06E-02
1.0545,-1.25E-03
1.055,-1.28E-02
1.0555,-2.45E-02
1.056,-3.69E-02
1.0565,-5.04E-02
1.057,-6.56E-02
1.0575,-8.29E-02
1.058,-1.03E-01
1.0585,-1.26E-01
1.059,-1.52E-01
1.0595,-1.79E-01
1.06,-2.05E-01
1.0605,-2.29E-01
1.061,-2.46E-01
1.0615,-2.56E-01
1.062,-2.58E-01
1.0625,-2.53E-01
1.063,-2.43E-01
1.0635,-2.29E-01
1.064,-2.12E-01
1.0645,-1.94E-01
1.065,-1.76E-01
1.0655,-1.57E-01
1.066,-1.39E-01
1.0665,-1.21E-01
1.067,-1.04E-01
1.0675,-8.77E-02
1.068,-7.16E-02
1.0685,-5.61E-02
1.069,-4.08E-02
1.0695,-2.59E-02
1.07,-1.12E-02
1.0705,3.44E-03
1.071,1.80E-02
1.0715,3.24E-02
1.072,4.67E-02
1.0725,6.07E-02
1.073,7.44E-02
1.0735,8.73E-02
1.074,9.94E-02
1.0745,1.10E-01
1.075,1.19E-01
1.0755,1.26E-01
1.076,1.31E-01
1.0765,1.34E-01
1.077,1.35E-01
1.0775,1.34E-01
1.078,1.31E-01
1.0785,1.27E-01
1.079,1.23E-01
1.0795,1.17E-01
1.08,1.12E-01
1.0805,1.06E-01
1.081,9.99E-02
1.0815,9.41E-02
1.082,8.84E-02
1.0825,8.30E-02
1.083,7.79E-02
1.0835,7.31E-02
1.084,6.85E-02
1.0845,6.43E-02
1.085,6.03E-02
1.0855,5.67E-02
1.086,5.33E-02
1.0865,5.03E-02
1.087,4.74E-02
1.0875,4.49E-02
1.088,4.25E-02
1.0885,4.04E-02
1.089,3.85E-02
1.0895,3.68E-02
1.09,3.53E-02
1.0905,3.40E-02
1.091,3.29E-02
1.0915,3.19E-02
1.092,3.10E-02
1.0925,3.03E-02
1.093,2.97E-02
1.0935,2.93E-02
1.094,2.90E-02
1.0945,2.88E-02
1.095,2.87E-02
1.0955,2.87E-02
1.096,2.88E-02
1.0965,2.90E-02
1.097,2.93E-02
1.0975,2.96E-02
1.098,3.01E-02
1.0985,3.06E-02
1.099,3.12E-02
1.0995,3.18E-02
1.1,3.25E-02
1.1005,3.33E-02
1.101,3.40E-02
1.1015,3.49E-02
1.102,3.57E-02
1.1025,3.66E-02
1.103,3.74E-02
1.1035,3.83E-02
1.104,3.90E-02
1.1045,3.98E-02
1.105,4.04E-02
1.1055,4.09E-02
1.106,4.12E-02
1.1065,4.13E-02
1.107,4.10E-02
1.1075,4.05E-02
1.108,3.94E-02
1.1085,3.78E-02
1.109,3.55E-02
1.1095,3.24E-02
1.11,2.83E-02
1.1105,2.31E-02
1.111,1.67E-02
1.1115,8.90E-03
1.112,-1.86E-04
1.1125,-1.04E-02
1.113,-2.13E-02
1.1135,-3.21E-02
1.114,-4.18E-02
1.1145,-4.91E-02
1.115,-5.26E-02
1.1155,-5.13E-02
1.116,-4.40E-02
1.1165,-3.03E-02
1.117,-9.16E-03
1.1175,2.09E-02
1.118,6.33E-02
1.1185,1.25E-01
1.119,2.19E-01
1.1195,3.64E-01
1.12,5.16E-01
1.1205,5.42E-01
1.121,4.63E-01
1.1215,3.68E-01
1.122,2.87E-01
1.1225,2.24E-01
1.123,1.75E-01
1.1235,1.37E-01
1.124,1.07E-01
1.1245,8.24E-02
1.125,6.21E-02
1.1255,4.49E-02
1.126,2.99E-02
1.1265,1.63E-02
1.127,3.61E-03
1.1275,-8.85E-03
1.128,-2.16E-02
1.1285,-3.51E-02
1.129,-5.00E-02
1.1295,-6.71E-02
1.13,-8.68E-02
1.1305,-1.10E-01
1.131,-1.36E-01
1.1315,-1.66E-01
1.132,-1.96E-01
1.1325,-2.25E-01
1.133,-2.48E-01
1.1335,-2.63E-01
1.134,-2.69E-01
1.1345,-2.66E-01
1.135,-2.57E-01
1.1355,-2.43E-01
1.136,-2.26E-01
1.1365,-2.07E-01
1.137,-1.87E-01
1.1375,-1.68E-01
1.138,-1.49E-01
1.1385,-1.30E-01
1.139,-1.12E-01
1.1395,-9.45E-02
1.14,-7.77E-02
1.1405,-6.14E-02
1.141,-4.56E-02
1.1415,-3.00E-02
1.142,-1.46E-02
1.1425,5.88E-04
1.143,1.57E-02
1.1435,3.08E-02
1.144,4.58E-02
1.1445,6.06E-02
1.145,7.50E-02
1.1455,8.88E-02
1.146,1.02E-01
1.1465,1.13E-01
1.147,1.22E-01
1.1475,1.30E-01
1.148,1.35E-01
1.1485,1.38E-01
1.149,1.39E-01
1.1495,1.38E-01
1.15,1.35E-01
1.1505,1.31E-01
1.151,1.26E-01
1.1515,1.20E-01
1.152,1.15E-01
1.1525,1.08E-01
1.153,1.02E-01
1.1535,9.64E-02
1.154,9.05E-02
1.1545,8.49E-02
1.155,7.95E-02
1.1555,7.45E-02
1.156,6.97E-02
1.1565,6.52E-02
1.157,6.11E-02
1.1575,5.72E-02
1.158,5.36E-02
1.1585,5.03E-02
1.159,4.72E-02
1.1595,4.44E-02
1.16,4.18E-02
1.1605,3.95E-02
1.161,3.74E-02
1.1615,3.54E-02
1.162,3.37E-02
1.1625,3.21E-02
1.163,3.08E-02
1.1635,2.95E-02
1.164,2.84E-02
1.1645,2.75E-02
1.165,2.67E-02
1.1655,2.60E-02
1.166,2.55E-02
1.1665,2.50E-02
1.167,2.47E-02
1.1675,2.44E-02
1.168,2.43E-02
1.1685,2.42E-02
1.169,2.42E-02
1.1695,2.43E-02
1.17,2.45E-02
1.1705,2.48E-02
1.171,2.51E-02
1.1715,2.55E-02
1.172,2.60E-02
1.1725,2.65E-02
1.173,2.71E-02
1.1735,2.77E-02
1.174,2.84E-02
1.1745,2.92E-02
1.175,3.00E-02
1.1755,3.09E-02
1.176,3.18E-02
1.1765,3.27E-02
1.177,3.37E-02
1.1775,3.47E-02
1.178,3.57E-02
1.1785,3.68E-02
1.179,3.79E-02
1.1795,3.90E-02
1.18,4.00E-02
1.1805,4.11E-02
1.181,4.21E-02
1.1815,4.31E-02
1.182,4.39E-02
1.1825,4.47E-02
1.183,4.53E-02
1.1835,4.57E-02
1.184,4.59E-02
1.1845,4.58E-02
1.185,4.52E-02
1.1855,4.42E-02
1.186,4.27E-02
1.1865,4.04E-02
1.187,3.72E-02
1.1875,3.30E-02
1.188,2.76E-02
1.1885,2.09E-02
1.189,1.27E-02
1.1895,3.03E-03
1.19,-7.98E-03
1.1905,-1.99E-02
1.191,-3.20E-02
1.1915,-4.31E-02
1.192,-5.18E-02
1.1925,-5.66E-02
1.193,-5.62E-02
1.1935,-4.97E-02
1.194,-3.64E-02
1.1945,-1.56E-02
1.195,1.43E-02
1.1955,5.65E-02
1.196,1.18E-01
1.1965,2.13E-01
1.197,3.62E-01
1.1975,5.26E-01
1.198,5.55E-01
1.1985,4.71E-01
1.199,3.72E-01
1.1995,2.90E-01
1.2,2.26E-01
1.2005,1.76E-01
1.201,1.38E-01
1.2015,1.08E-01
1.202,8.30E-02
1.2025,6.27E-02
1.203,4.56E-02
1.2035,3.08E-02
1.204,1.75E-02
1.2045,5.33E-03
1.205,-6.34E-03
1.2055,-1.79E-02
1.206,-2.99E-02
1.2065,-4.28E-02
1.207,-5.70E-02
1.2075,-7.32E-02
1.208,-9.18E-02
1.2085,-1.13E-01
1.209,-1.38E-01
1.2095,-1.64E-01
1.21,-1.92E-01
1.2105,-2.17E-01
1.211,-2.38E-01
1.2115,-2.52E-01
1.212,-2.58E-01
1.2125,-2.57E-01
1.213,-2.49E-01
1.2135,-2.37E-01
1.214,-2.21E-01
1.2145,-2.04E-01
1.215,-1.86E-01
1.2155,-1.67E-01
1.216,-1.49E-01
1.2165,-1.31E-01
1.217,-1.13E-01
1.2175,-9.63E-02
1.218,-8.00E-02
1.2185,-6.42E-02
1.219,-4.88E-02
1.2195,-3.37E-02
1.22,-1.89E-02
1.2205,-4.18E-03
1.221,1.04E-02
1.2215,2.49E-02
1.222,3.93E-02
1.2225,5.35E-02
1.223,6.74E-02
1.2235,8.08E-02
1.224,9.33E-02
1.2245,1.05E-01
1.225,1.15E-01
1.2255,1.23E-01
1.226,1.29E-01
1.2265,1.33E-01
1.227,1.35E-01
1.2275,1.35E-01
1.228,1.33E-01
1.2285,1.30E-01
1.229,1.25E-01
1.2295,1.20E-01
1.23,1.15E-01
1.2305,1.09E-01
1.231,1.03E-01
1.2315,9.71E-02
1.232,9.14E-02
1.2325,8.59E-02
1.233,8.06E-02
1.2335,7.56E-02
1.234,7.09E-02
1.2345,6.65E-02
1.235,6.24E-02
1.2355,5.86E-02
1.236,5.50E-02
1.2365,5.18E-02
1.237,4.89E-02
1.2375,4.61E-02
1.238,4.37E-02
1.2385,4.15E-02
1.239,3.94E-02
1.2395,3.76E-02
1.24,3.60E-02
1.2405,3.46E-02
1.241,3.34E-02
1.2415,3.23E-02
1.242,3.13E-02
1.2425,3.06E-02
1.243,2.99E-02
1.2435,2.94E-02
1.244,2.90E-02
1.2445,2.87E-02
1.245,2.86E-02
1.2455,2.85E-02
1.246,2.86E-02
1.2465,2.87E-02
1.247,2.89E-02
1.2475,2.93E-02
1.248,2.97E-02
1.2485,3.01E-02
1.249,3.07E-02
1.2495,3.13E-02
1.25,3.19E-02
1.2505,3.27E-02
1.251,3.34E-02
1.2515,3.42E-02
1.252,3.51E-02
1.2525,3.59E-02
1.253,3.68E-02
1.2535,3.77E-02
1.254,3.85E-02
1.2545,3.93E-02
1.255,4.00E-02
1.2555,4.06E-02
1.256,4.11E-02
1.2565,4.14E-02
1.257,4.14E-02
1.2575,4.12E-02
1.258,4.05E-02
1.2585,3.94E-02
1.259,3.78E-02
1.2595,3.54E-02
1.26,3.21E-02
1.2605,2.79E-02
1.261,2.26E-02
1.2615,1.59E-02
1.262,7.98E-03
1.2625,-1.28E-03
1.263,-1.16E-02
1.2635,-2.26E-02
1.264,-3.34E-02
1.2645,-4.29E-02
1.265,-4.99E-02
1.2655,-5.29E-02
1.266,-5.08E-02
1.2665,-4.28E-02
1.267,-2.82E-02
1.2675,-6.06E-03
1.268,2.54E-02
1.2685,6.96E-02
1.269,1.34E-01
1.2695,2.35E-01
1.27,3.85E-01
1.2705,5.29E-01
1.271,5.36E-01
1.2715,4.50E-01
1.272,3.56E-01
1.2725,2.78E-01
1.273,2.17E-01
1.2735,1.70E-01
1.274,1.33E-01
1.2745,1.03E-01
1.275,7.96E-02
1.2755,5.98E-02
1.276,4.29E-02
1.2765,2.81E-02
1.277,1.47E-02
1.2775,2.06E-03
1.278,-1.04E-02
1.2785,-2.31E-02
1.279,-3.67E-02
1.2795,-5.18E-02
1.28,-6.91E-02
1.2805,-8.91E-02
1.281,-1.12E-01
1.2815,-1.39E-01
1.282,-1.69E-01
1.2825,-1.99E-01
1.283,-2.27E-01
1.2835,-2.50E-01
1.284,-2.64E-01
1.2845,-2.69E-01
1.285,-2.65E-01
1.2855,-2.55E-01
1.286,-2.41E-01
1.2865,-2.24E-01
1.287,-2.05E-01
1.2875,-1.85E-01
1.288,-1.66E-01
1.2885,-1.47E-01
1.289,-1.28E-01
1.2895,-1.10E-01
1.29,-9.29E-02
1.2905,-7.62E-02
1.291,-6.00E-02
1.2915,-4.42E-02
1.292,-2.86E-02
1.2925,-1.33E-02
1.293,1.90E-03
1.2935,1.70E-02
1.294,3.21E-02
1.2945,4.71E-02
1.295,6.18E-02
1.2955,7.61E-02
1.296,8.98E-02
1.2965,1.02E-01
1.297,1.14E-01
1.2975,1.23E-01
1.298,1.30E-01
1.2985,1.35E-01
1.299,1.38E-01
1.2995,1.39E-01
1.3,1.37E-01
1.3005,1.35E-01
1.301,1.30E-01
1.3015,1.25E-01
1.302,1.20E-01
1.3025,1.14E-01
1.303,1.08E-01
1.3035,1.02E-01
1.304,9.58E-02
1.3045,9.00E-02
1.305,8.44E-02
1.3055,7.91E-02
1.306,7.40E-02
1.3065,6.93E-02
1.307,6.49E-02
1.3075,6.07E-02
1.308,5.69E-02
1.3085,5.33E-02
1.309,5.00E-02
1.3095,4.70E-02
1.31,4.42E-02
1.3105,4.17E-02
1.311,3.93E-02
1.3115,3.72E-02
1.312,3.53E-02
1.3125,3.36E-02
1.313,3.21E-02
1.3135,3.07E-02
1.314,2.95E-02
1.3145,2.84E-02
1.315,2.75E-02
1.3155,2.67E-02
1.316,2.61E-02
1.3165,2.55E-02
1.317,2.51E-02
1.3175,2.48E-02
1.318,2.45E-02
1.3185,2.44E-02
1.319,2.43E-02
1.3195,2.44E-02
1.32,2.45E-02
1.3205,2.47E-02
1.321,2.50E-02
1.3215,2.53E-02
1.322,2.57E-02
1.3225,2.62E-02
1.323,2.67E-02
1.3235,2.74E-02
1.324,2.80E-02
1.3245,2.87E-02
1.325,2.95E-02
1.3255,3.03E-02
1.326,3.12E-02
1.3265,3.21E-02
1.327,3.30E-02
1.3275,3.40E-02
1.328,3.51E-02
1.3285,3.61E-02
1.329,3.72E-02
1.3295,3.82E-02
1.33,3.93E-02
1.3305,4.04E-02
1.331,4.14E-02
1.3315,4.24E-02
1.332,4.33E-02
1.3325,4.41E-02
1.333,4.48E-02
1.3335,4.54E-02
1.334,4.57E-02
1.3345,4.58E-02
1.335,4.55E-02
1.3355,4.48E-02
1.336,4.36E-02
1.3365,4.17E-02
1.337,3.91E-02
1.3375,3.55E-02
1.338,3.09E-02
1.3385,2.50E-02
1.339,1.77E-02
1.3395,8.88E-03
1.34,-1.35E-03
1.3405,-1.28E-02
1.341,-2.48E-02
1.3415,-3.66E-02
1.342,-4.69E-02
1.3425,-5.41E-02
1.343,-5.70E-02
1.3435,-5.42E-02
1.344,-4.50E-02
1.3445,-2.88E-02
1.345,-4.47E-03
1.3455,2.99E-02
1.346,7.87E-02
1.3465,1.51E-01
1.347,2.67E-01
1.3475,4.35E-01
1.348,5.58E-01
1.3485,5.27E-01
1.349,4.30E-01
1.3495,3.37E-01
1.35,2.62E-01
1.3505,2.04E-01
1.351,1.60E-01
1.3515,1.25E-01
1.352,9.69E-02
1.3525,7.43E-02
1.353,5.54E-02
1.3535,3.93E-02
1.354,2.52E-02
1.3545,1.24E-02
1.355,5.01E-04
1.3555,-1.11E-02
1.356,-2.28E-02
1.3565,-3.52E-02
1.357,-4.86E-02
1.3575,-6.36E-02
1.358,-8.08E-02
1.3585,-1.01E-01
1.359,-1.23E-01
1.3595,-1.49E-01
1.36,-1.76E-01
1.3605,-2.03E-01
1.361,-2.27E-01
1.3615,-2.46E-01
1.362,-2.56E-01
1.3625,-2.59E-01
1.363,-2.54E-01
1.3635,-2.44E-01
1.364,-2.30E-01
1.3645,-2.14E-01
1.365,-1.96E-01
1.3655,-1.77E-01
1.366,-1.59E-01
1.3665,-1.41E-01
1.367,-1.23E-01
1.3675,-1.06E-01
1.368,-8.91E-02
1.3685,-7.30E-02
1.369,-5.74E-02
1.3695,-4.21E-02
1.37,-2.71E-02
1.3705,-1.24E-02
1.371,2.29E-03
1.3715,1.68E-02
1.372,3.13E-02
1.3725,4.57E-02
1.373,5.98E-02
1.3735,7.35E-02
1.374,8.66E-02
1.3745,9.87E-02
1.375,1.10E-01
1.3755,1.19E-01
1.376,1.26E-01
1.3765,1.31E-01
1.377,1.34E-01
1.3775,1.35E-01
1.378,1.34E-01
1.3785,1.32E-01
1.379,1.28E-01
1.3795,1.23E-01
1.38,1.18E-01
1.3805,1.12E-01
1.381,1.06E-01
1.3815,1.00E-01
1.382,9.46E-02
1.3825,8.89E-02
1.383,8.35E-02
1.3835,7.83E-02
1.384,7.35E-02
1.3845,6.89E-02
1.385,6.46E-02
1.3855,6.06E-02
1.386,5.70E-02
1.3865,5.36E-02
1.387,5.05E-02
1.3875,4.76E-02
1.388,4.50E-02
1.3885,4.26E-02
1.389,4.05E-02
1.3895,3.86E-02
1.39,3.69E-02
1.3905,3.53E-02
1.391,3.40E-02
1.3915,3.28E-02
1.392,3.18E-02
1.3925,3.09E-02
1.393,3.02E-02
1.3935,2.96E-02
1.394,2.91E-02
1.3945,2.88E-02
1.395,2.86E-02
1.3955,2.84E-02
1.396,2.84E-02
1.3965,2.85E-02
1.397,2.87E-02
1.3975,2.89E-02
1.398,2.93E-02
1.3985,2.97E-02
1.399,3.02E-02
1.3995,3.08E-02
1.4,3.14E-02
1.4005,3.21E-02
1.401,3.28E-02
1.4015,3.36E-02
1.402,3.44E-02
1.4025,3.53E-02
1.403,3.62E-02
1.4035,3.70E-02
1.404,3.79E-02
1.4045,3.87E-02
1.405,3.95E-02
1.4055,4.02E-02
1.406,4.08E-02
1.4065,4.13E-02
1.407,4.15E-02
1.4075,4.16E-02
1.408,4.13E-02
1.4085,4.06E-02
1.409,3.94E-02
1.4095,3.76E-02
1.41,3.51E-02
1.4105,3.17E-02
1.411,2.73E-02
1.4115,2.18E-02
1.412,1.50E-02
1.4125,6.78E-03
1.413,-2.68E-03
1.4135,-1.32E-02
1.414,-2.42E-02
1.4145,-3.49E-02
1.415,-4.42E-02
1.4155,-5.07E-02
1.416,-5.30E-02
1.4165,-5.01E-02
1.417,-4.12E-02
1.4175,-2.55E-02
1.418,-2.09E-03
1.4185,3.10E-02
1.419,7.78E-02
1.4195,1.47E-01
1.42,2.54E-01
1.4205,4.11E-01
1.421,5.41E-01
1.4215,5.26E-01
1.422,4.36E-01
1.4225,3.43E-01
1.423,2.68E-01
1.4235,2.09E-01
1.424,1.64E-01
1.4245,1.28E-01
1.425,9.95E-02
1.4255,7.63E-02
1.426,5.71E-02
1.4265,4.06E-02
1.427,2.60E-02
1.4275,1.28E-02
1.428,2.08E-04
1.4285,-1.22E-02
1.429,-2.50E-02
1.4295,-3.88E-02
1.43,-5.41E-02
1.4305,-7.16E-02
1.431,-9.20E-02
1.4315,-1.16E-01
1.432,-1.43E-01
1.4325,-1.73E-01
1.433,-2.03E-01
1.4335,-2.30E-01
1.434,-2.52E-01
1.4345,-2.65E-01
1.435,-2.68E-01
1.4355,-2.64E-01
1.436,-2.54E-01
1.4365,-2.39E-01
1.437,-2.21E-01
1.4375,-2.02E-01
1.438,-1.83E-01
1.4385,-1.63E-01
1.439,-1.44E-01
1.4395,-1.26E-01
1.44,-1.08E-01
1.4405,-9.08E-02
1.441,-7.42E-02
1.4415,-5.80E-02
1.442,-4.23E-02
1.4425,-2.68E-02
1.443,-1.15E-02
1.4435,3.69E-03
1.444,1.88E-02
1.4445,3.38E-02
1.445,4.88E-02
1.4455,6.35E-02
1.446,7.77E-02
1.4465,9.12E-02
1.447,1.04E-01
1.4475,1.15E-01
1.448,1.24E-01
1.4485,1.31E-01
1.449,1.36E-01
1.4495,1.38E-01
1.45,1.39E-01
1.4505,1.37E-01
1.451,1.34E-01
1.4515,1.30E-01
1.452,1.25E-01
1.4525,1.19E-01
1.453,1.13E-01
1.4535,1.07E-01
1.454,1.01E-01
1.4545,9.51E-02
1.455,8.93E-02
1.4555,8.37E-02
1.456,7.85E-02
1.4565,7.35E-02
1.457,6.88E-02
1.4575,6.44E-02
1.458,6.03E-02
1.4585,5.64E-02
1.459,5.29E-02
1.4595,4.97E-02
1.46,4.67E-02
1.4605,4.39E-02
1.461,4.14E-02
1.4615,3.91E-02
1.462,3.70E-02
1.4625,3.52E-02
1.463,3.35E-02
1.4635,3.20E-02
1.464,3.06E-02
1.4645,2.94E-02
1.465,2.84E-02
1.4655,2.75E-02
1.466,2.67E-02
1.4665,2.61E-02
1.467,2.56E-02
1.4675,2.51E-02
1.468,2.48E-02
1.4685,2.46E-02
1.469,2.45E-02
1.4695,2.45E-02
1.47,2.45E-02
1.4705,2.46E-02
1.471,2.49E-02
1.4715,2.51E-02
1.472,2.55E-02
1.4725,2.59E-02
1.473,2.64E-02
1.4735,2.70E-02
1.474,2.76E-02
1.4745,2.83E-02
1.475,2.90E-02
1.4755,2.98E-02
1.476,3.06E-02
1.4765,3.15E-02
1.477,3.24E-02
1.4775,3.34E-02
1.478,3.44E-02
1.4785,3.54E-02
1.479,3.64E-02
1.4795,3.75E-02
1.48,3.86E-02
1.4805,3.96E-02
1.481,4.07E-02
1.4815,4.17E-02
1.482,4.27E-02
1.4825,4.36E-02
1.483,4.43E-02
1.4835,4.50E-02
1.484,4.54E-02
1.4845,4.57E-02
1.485,4.56E-02
1.4855,4.52E-02
1.486,4.43E-02
1.4865,4.28E-02
1.487,4.07E-02
1.4875,3.77E-02
1.488,3.38E-02
1.4885,2.87E-02
1.489,2.22E-02
1.4895,1.44E-02
1.49,5.04E-03
1.4905,-5.68E-03
1.491,-1.74E-02
1.4915,-2.95E-02
1.492,-4.08E-02
1.4925,-5.01E-02
1.493,-5.57E-02
1.4935,-5.65E-02
1.494,-5.13E-02
1.4945,-3.95E-02
1.495,-2.03E-02
1.4955,7.59E-03
1.496,4.68E-02
1.4965,1.03E-01
1.497,1.90E-01
1.4975,3.27E-01
1.498,4.98E-01
1.4985,5.61E-01
1.499,4.91E-01
1.4995,3.92E-01
1.5,3.05E-01
1.5005,2.38E-01
1.501,1.86E-01
1.5015,1.45E-01
1.502,1.13E-01
1.5025,8.76E-02
1.503,6.66E-02
1.5035,4.89E-02
1.504,3.36E-02
1.5045,2.01E-02
1.505,7.72E-03
1.5055,-4.05E-03
1.506,-1.57E-02
1.5065,-2.76E-02
1.507,-4.03E-02
1.5075,-5.44E-02
1.508,-7.02E-02
1.5085,-8.85E-02
1.509,-1.10E-01
1.5095,-1.34E-01
1.51,-1.60E-01
1.5105,-1.88E-01
1.511,-2.14E-01
1.5115,-2.36E-01
1.512,-2.51E-01
1.5125,-2.59E-01
1.513,-2.58E-01
1.5135,-2.51E-01
1.514,-2.39E-01
1.5145,-2.24E-01
1.515,-2.07E-01
1.5155,-1.88E-01
1.516,-1.70E-01
1.5165,-1.51E-01
1.517,-1.33E-01
1.5175,-1.16E-01
1.518,-9.88E-02
1.5185,-8.24E-02
1.519,-6.65E-02
1.5195,-5.10E-02
1.52,-3.59E-02
1.5205,-2.10E-02
1.521,-6.23E-03
1.5215,8.39E-03
1.522,2.29E-02
1.5225,3.74E-02
1.523,5.16E-02
1.5235,6.56E-02
1.524,7.91E-02
1.5245,9.18E-02
1.525,1.03E-01
1.5255,1.14E-01
1.526,1.22E-01
1.5265,1.29E-01
1.527,1.33E-01
1.5275,1.35E-01
1.528,1.35E-01
1.5285,1.33E-01
1.529,1.30E-01
1.5295,1.26E-01
1.53,1.21E-01
1.5305,1.16E-01
1.531,1.10E-01
1.5315,1.04E-01
1.532,9.80E-02
1.5325,9.22E-02
1.533,8.66E-02
1.5335,8.13E-02
1.534,7.63E-02
1.5345,7.15E-02
1.535,6.71E-02
1.5355,6.29E-02
1.536,5.91E-02
1.5365,5.55E-02
1.537,5.22E-02
1.5375,4.92E-02
1.538,4.65E-02
1.5385,4.40E-02
1.539,4.17E-02
1.5395,3.96E-02
1.54,3.78E-02
1.5405,3.62E-02
1.541,3.47E-02
1.5415,3.34E-02
1.542,3.23E-02
1.5425,3.13E-02
1.543,3.05E-02
1.5435,2.99E-02
1.544,2.93E-02
1.5445,2.89E-02
1.545,2.86E-02
1.5455,2.84E-02
1.546,2.83E-02
1.5465,2.83E-02
1.547,2.85E-02
1.5475,2.87E-02
1.548,2.90E-02
1.5485,2.93E-02
1.549,2.98E-02
1.5495,3.03E-02
1.55,3.09E-02
1.5505,3.15E-02
1.551,3.22E-02
1.5515,3.30E-02
1.552,3.38E-02
1.5525,3.46E-02
1.553,3.55E-02
1.5535,3.64E-02
1.554,3.73E-02
1.5545,3.81E-02
1.555,3.90E-02
1.5555,3.97E-02
1.556,4.04E-02
1.5565,4.10E-02
1.557,4.15E-02
1.5575,4.17E-02
1.558,4.17E-02
1.5585,4.13E-02
1.559,4.05E-02
1.5595,3.92E-02
1.56,3.74E-02
1.5605,3.47E-02
1.561,3.12E-02
1.5615,2.66E-02
1.562,2.08E-02
1.5625,1.38E-02
1.563,5.35E-03
1.5635,-4.33E-03
1.564,-1.50E-02
1.5645,-2.61E-02
1.565,-3.67E-02
1.5655,-4.56E-02
1.566,-5.14E-02
1.5665,-5.30E-02
1.567,-4.91E-02
1.5675,-3.91E-02
1.568,-2.22E-02
1.5685,2.69E-03
1.569,3.77E-02
1.5695,8.75E-02
1.57,1.62E-01
1.5705,2.78E-01
1.571,4.40E-01
1.5715,5.49E-01
1.572,5.13E-01
1.5725,4.19E-01
1.573,3.29E-01
1.5735,2.57E-01
1.574,2.00E-01
1.5745,1.57E-01
1.575,1.23E-01
1.5755,9.52E-02
1.576,7.28E-02
1.5765,5.41E-02
1.577,3.80E-02
1.5775,2.37E-02
1.578,1.06E-02
1.5785,-1.88E-03
1.579,-1.43E-02
1.5795,-2.72E-02
1.58,-4.11E-02
1.5805,-5.67E-02
1.581,-7.46E-02
1.5815,-9.54E-02
1.582,-1.20E-01
1.5825,-1.47E-01
1.583,-1.77E-01
1.5835,-2.07E-01
1.584,-2.34E-01
1.5845,-2.54E-01
1.585,-2.65E-01
1.5855,-2.68E-01
1.586,-2.63E-01
1.5865,-2.51E-01
1.587,-2.36E-01
1.5875,-2.18E-01
1.588,-1.99E-01
1.5885,-1.80E-01
1.589,-1.60E-01
1.5895,-1.41E-01
1.59,-1.23E-01
1.5905,-1.05E-01
1.591,-8.83E-02
1.5915,-7.18E-02
1.592,-5.57E-02
1.5925,-4.00E-02
1.593,-2.46E-02
1.5935,-9.31E-03
1.594,5.85E-03
1.5945,2.09E-02
1.595,3.59E-02
1.5955,5.08E-02
1.596,6.55E-02
1.5965,7.96E-02
1.597,9.30E-02
1.5975,1.05E-01
1.598,1.16E-01
1.5985,1.25E-01
1.599,1.32E-01
1.5995,1.36E-01
1.6,1.38E-01
1.6005,1.38E-01
1.601,1.37E-01
1.6015,1.33E-01
1.602,1.29E-01
1.6025,1.24E-01
1.603,1.18E-01
1.6035,1.12E-01
1.604,1.06E-01
1.6045,1.00E-01
1.605,9.42E-02
1.6055,8.85E-02
1.606,8.29E-02
1.6065,7.77E-02
1.607,7.28E-02
1.6075,6.81E-02
1.608,6.38E-02
1.6085,5.97E-02
1.609,5.59E-02
1.6095,5.24E-02
1.61,4.92E-02
1.6105,4.63E-02
1.611,4.36E-02
1.6115,4.11E-02
1.612,3.88E-02
1.6125,3.68E-02
1.613,3.50E-02
1.6135,3.33E-02
1.614,3.18E-02
1.6145,3.05E-02
1.615,2.93E-02
1.6155,2.83E-02
1.616,2.74E-02
1.6165,2.67E-02
1.617,2.61E-02
1.6175,2.56E-02
1.618,2.52E-02
1.6185,2.49E-02
1.619,2.47E-02
1.6195,2.46E-02
1.62,2.46E-02
1.6205,2.46E-02
1.621,2.48E-02
1.6215,2.50E-02
1.622,2.53E-02
1.6225,2.57E-02
1.623,2.61E-02
1.6235,2.66E-02
1.624,2.72E-02
1.6245,2.78E-02
1.625,2.85E-02
1.6255,2.93E-02
1.626,3.01E-02
1.6265,3.09E-02
1.627,3.18E-02
1.6275,3.27E-02
1.628,3.37E-02
1.6285,3.47E-02
1.629,3.57E-02
1.6295,3.68E-02
1.63,3.78E-02
1.6305,3.89E-02
1.631,4.00E-02
1.6315,4.10E-02
1.632,4.20E-02
1.6325,4.29E-02
1.633,4.38E-02
1.6335,4.45E-02
1.634,4.51E-02
1.6345,4.55E-02
1.635,4.56E-02
1.6355,4.54E-02
1.636,4.48E-02
1.6365,4.37E-02
1.637,4.21E-02
1.6375,3.96E-02
1.638,3.63E-02
1.6385,3.19E-02
1.639,2.64E-02
1.6395,1.94E-02
1.64,1.10E-02
1.6405,1.16E-03
1.641,-9.98E-03
1.6415,-2.19E-02
1.642,-3.38E-02
1.6425,-4.45E-02
1.643,-5.26E-02
1.6435,-5.66E-02
1.644,-5.52E-02
1.6445,-4.76E-02
1.645,-3.31E-02
1.6455,-1.09E-02
1.646,2.08E-02
1.6465,6.55E-02
1.647,1.31E-01
1.6475,2.34E-01
1.648,3.92E-01
1.6485,5.42E-01
1.649,5.44E-01
1.6495,4.54E-01
1.65,3.57E-01
1.6505,2.78E-01
1.651,2.17E-01
1.6515,1.69E-01
1.652,1.32E-01
1.6525,1.03E-01
1.653,7.93E-02
1.6535,5.97E-02
1.654,4.30E-02
1.6545,2.84E-02
1.655,1.54E-02
1.6555,3.26E-03
1.656,-8.42E-03
1.6565,-2.01E-02
1.657,-3.23E-02
1.6575,-4.55E-02
1.658,-6.02E-02
1.6585,-7.70E-02
1.659,-9.63E-02
1.6595,-1.19E-01
1.66,-1.44E-01
1.6605,-1.71E-01
1.661,-1.98E-01
1.6615,-2.23E-01
1.662,-2.43E-01
1.6625,-2.55E-01
1.663,-2.59E-01
1.6635,-2.56E-01
1.664,-2.47E-01
1.6645,-2.34E-01
1.665,-2.17E-01
1.6655,-2.00E-01
1.666,-1.81E-01
1.6665,-1.63E-01
1.667,-1.44E-01
1.6675,-1.26E-01
1.668,-1.09E-01
1.6685,-9.23E-02
1.669,-7.61E-02
1.6695,-6.03E-02
1.67,-4.50E-02
1.6705,-2.99E-02
1.671,-1.51E-02
1.6715,-3.92E-04
1.672,1.42E-02
1.6725,2.87E-02
1.673,4.31E-02
1.6735,5.73E-02
1.674,7.11E-02
1.6745,8.44E-02
1.675,9.67E-02
1.6755,1.08E-01
1.676,1.17E-01
1.6765,1.25E-01
1.677,1.31E-01
1.6775,1.34E-01
1.678,1.35E-01
1.6785,1.35E-01
1.679,1.32E-01
1.6795,1.29E-01
1.68,1.24E-01
1.6805,1.19E-01
1.681,1.13E-01
1.6815,1.07E-01
1.682,1.02E-01
1.6825,9.57E-02
1.683,9.00E-02
1.6835,8.45E-02
1.684,7.93E-02
1.6845,7.44E-02
1.685,6.97E-02
1.6855,6.54E-02
1.686,6.13E-02
1.6865,5.76E-02
1.687,5.42E-02
1.6875,5.10E-02
1.688,4.81E-02
1.6885,4.54E-02
1.689,4.30E-02
1.6895,4.08E-02
1.69,3.89E-02
1.6905,3.71E-02
1.691,3.55E-02
1.6915,3.41E-02
1.692,3.29E-02
1.6925,3.19E-02
1.693,3.09E-02
1.6935,3.02E-02
1.694,2.96E-02
1.6945,2.91E-02
1.695,2.87E-02
1.6955,2.84E-02
1.696,2.83E-02
1.6965,2.82E-02
1.697,2.83E-02
1.6975,2.84E-02
1.698,2.87E-02
1.6985,2.90E-02
1.699,2.94E-02
1.6995,2.99E-02
1.7,3.04E-02
1.7005,3.10E-02
1.701,3.17E-02
1.7015,3.24E-02
1.702,3.32E-02
1.7025,3.40E-02
1.703,3.49E-02
1.7035,3.57E-02
1.704,3.66E-02
1.7045,3.75E-02
1.705,3.84E-02
1.7055,3.92E-02
1.706,4.00E-02
1.7065,4.07E-02
1.707,4.12E-02
1.7075,4.16E-02
1.708,4.18E-02
1.7085,4.17E-02
1.709,4.13E-02
1.7095,4.04E-02
1.71,3.91E-02
1.7105,3.70E-02
1.711,3.42E-02
1.7115,3.05E-02
1.712,2.57E-02
1.7125,1.97E-02
1.713,1.24E-02
1.7135,3.73E-03
1.714,-6.18E-03
1.7145,-1.70E-02
1.715,-2.81E-02
1.7155,-3.85E-02
1.716,-4.70E-02
1.7165,-5.21E-02
1.717,-5.28E-02
1.7175,-4.79E-02
1.718,-3.66E-02
1.7185,-1.83E-02
1.719,8.25E-03
1.7195,4.56E-02
1.72,9.90E-02
1.7205,1.80E-01
1.721,3.06E-01
1.7215,4.70E-01
1.722,5.52E-01
1.7225,4.97E-01
1.723,4.01E-01
1.7235,3.14E-01
1.724,2.45E-01
1.7245,1.91E-01
1.725,1.50E-01
1.7255,1.17E-01
1.726,9.07E-02
1.7265,6.91E-02
1.727,5.09E-02
1.7275,3.52E-02
1.728,2.12E-02
1.7285,8.27E-03
1.729,-4.15E-03
1.7295,-1.66E-02
1.73,-2.96E-02
1.7305,-4.38E-02
1.731,-5.97E-02
1.7315,-7.80E-02
1.732,-9.93E-02
1.7325,-1.24E-01
1.733,-1.52E-01
1.7335,-1.82E-01
1.734,-2.12E-01
1.7345,-2.38E-01
1.735,-2.56E-01
1.7355,-2.66E-01
1.736,-2.67E-01
1.7365,-2.61E-01
1.737,-2.49E-01
1.7375,-2.33E-01
1.738,-2.15E-01
1.7385,-1.96E-01
1.739,-1.77E-01
1.7395,-1.57E-01
1.74,-1.38E-01
1.7405,-1.20E-01
1.741,-1.03E-01
1.7415,-8.55E-02
1.742,-6.91E-02
1.7425,-5.31E-02
1.743,-3.75E-02
1.7435,-2.21E-02
1.744,-6.85E-03
1.7445,8.28E-03
1.745,2.33E-02
1.7455,3.83E-02
1.746,5.32E-02
1.7465,6.77E-02
1.747,8.17E-02
1.7475,9.50E-02
1.748,1.07E-01
1.7485,1.17E-01
1.749,1.26E-01
1.7495,1.32E-01
1.75,1.37E-01
1.7505,1.38E-01
1.751,1.38E-01
1.7515,1.36E-01
1.752,1.33E-01
1.7525,1.28E-01
1.753,1.23E-01
1.7535,1.17E-01
1.754,1.11E-01
1.7545,1.05E-01
1.755,9.92E-02
1.7555,9.32E-02
1.756,8.75E-02
1.7565,8.21E-02
1.757,7.69E-02
1.7575,7.20E-02
1.758,6.74E-02
1.7585,6.31E-02
1.759,5.91E-02
1.7595,5.54E-02
1.76,5.19E-02
1.7605,4.88E-02
1.761,4.58E-02
1.7615,4.32E-02
1.762,4.07E-02
1.7625,3.85E-02
1.763,3.65E-02
1.7635,3.47E-02
1.764,3.31E-02
1.7645,3.16E-02
1.765,3.04E-02
1.7655,2.92E-02
1.766,2.82E-02
1.7665,2.74E-02
1.767,2.67E-02
1.7675,2.61E-02
1.768,2.56E-02
1.7685,2.52E-02
1.769,2.49E-02
1.7695,2.47E-02
1.77,2.47E-02
1.7705,2.47E-02
1.771,2.47E-02
1.7715,2.49E-02
1.772,2.52E-02
1.7725,2.55E-02
1.773,2.59E-02
1.7735,2.63E-02
1.774,2.68E-02
1.7745,2.74E-02
1.775,2.81E-02
1.7755,2.88E-02
1.776,2.95E-02
1.7765,3.03E-02
1.777,3.12E-02
1.7775,3.21E-02
1.778,3.30E-02
1.7785,3.40E-02
1.779,3.50E-02
1.7795,3.61E-02
1.78,3.71E-02
1.7805,3.82E-02
1.781,3.92E-02
1.7815,4.03E-02
1.782,4.13E-02
1.7825,4.23E-02
1.783,4.32E-02
1.7835,4.40E-02
1.784,4.47E-02
1.7845,4.52E-02
1.785,4.55E-02
1.7855,4.55E-02
1.786,4.52E-02
1.7865,4.44E-02
1.787,4.31E-02
1.7875,4.12E-02
1.788,3.85E-02
1.7885,3.48E-02
1.789,3.00E-02
1.7895,2.40E-02
1.79,1.65E-02
1.7905,7.59E-03
1.791,-2.76E-03
1.7915,-1.42E-02
1.792,-2.63E-02
1.7925,-3.79E-02
1.793,-4.78E-02
1.7935,-5.45E-02
1.794,-5.66E-02
1.7945,-5.31E-02
1.795,-4.31E-02
1.7955,-2.60E-02
1.796,-5.90E-04
1.7965,3.52E-02
1.797,8.62E-02
1.7975,1.63E-01
1.798,2.84E-01
1.7985,4.55E-01
1.799,5.61E-01
1.7995,5.16E-01
1.8,4.17E-01
1.8005,3.26E-01
1.801,2.54E-01
1.8015,1.98E-01
1.802,1.55E-01
1.8025,1.21E-01
1.803,9.40E-02
1.8035,7.18E-02
1.804,5.33E-02
1.8045,3.75E-02
1.805,2.36E-02
1.8055,1.09E-02
1.806,-1.01E-03
1.8065,-1.27E-02
1.807,-2.45E-02
1.8075,-3.70E-02
1.808,-5.07E-02
1.8085,-6.62E-02
1.809,-8.39E-02
1.8095,-1.04E-01
1.81,-1.28E-01
1.8105,-1.54E-01
1.811,-1.81E-01
1.8115,-2.08E-01
1.812,-2.32E-01
1.8125,-2.49E-01
1.813,-2.58E-01
1.8135,-2.59E-01
1.814,-2.54E-01
1.8145,-2.43E-01
1.815,-2.28E-01
1.8155,-2.11E-01
1.816,-1.93E-01
1.8165,-1.74E-01
1.817,-1.56E-01
1.8175,-1.37E-01
1.818,-1.20E-01
1.8185,-1.03E-01
1.819,-8.61E-02
1.8195,-7.00E-02
1.82,-5.44E-02
1.8205,-3.92E-02
1.821,-2.42E-02
1.8215,-9.44E-03
1.822,5.23E-03
1.8225,1.98E-02
1.823,3.43E-02
1.8235,4.86E-02
1.824,6.27E-02
1.8245,7.64E-02
1.825,8.93E-02
1.8255,1.01E-01
1.826,1.12E-01
1.8265,1.21E-01
1.827,1.27E-01
1.8275,1.32E-01
1.828,1.35E-01
1.8285,1.35E-01
1.829,1.34E-01
1.8295,1.31E-01
1.83,1.27E-01
1.8305,1.22E-01
1.831,1.17E-01
1.8315,1.11E-01
1.832,1.05E-01
1.8325,9.93E-02
1.833,9.35E-02
1.8335,8.79E-02
1.834,8.25E-02
1.8345,7.74E-02
1.835,7.25E-02
1.8355,6.80E-02
1.836,6.38E-02
1.8365,5.99E-02
1.837,5.62E-02
1.8375,5.29E-02
1.838,4.98E-02
1.8385,4.70E-02
1.839,4.45E-02
1.8395,4.21E-02
1.84,4.00E-02
1.8405,3.81E-02
1.841,3.64E-02
1.8415,3.49E-02
1.842,3.36E-02
1.8425,3.24E-02
1.843,3.14E-02
1.8435,3.06E-02
1.844,2.99E-02
1.8445,2.93E-02
1.845,2.88E-02
1.8455,2.85E-02
1.846,2.83E-02
1.8465,2.82E-02
1.847,2.82E-02
1.8475,2.83E-02
1.848,2.84E-02
1.8485,2.87E-02
1.849,2.90E-02
1.8495,2.95E-02
1.85,3.00E-02
1.8505,3.05E-02
1.851,3.12E-02
1.8515,3.18E-02
1.852,3.26E-02
1.8525,3.34E-02
1.853,3.42E-02
1.8535,3.51E-02
1.854,3.60E-02
1.8545,3.68E-02
1.855,3.77E-02
1.8555,3.86E-02
1.856,3.94E-02
1.8565,4.02E-02
1.857,4.09E-02
1.8575,4.14E-02
1.858,4.18E-02
1.8585,4.19E-02
1.859,4.18E-02
1.8595,4.13E-02
1.86,4.03E-02
1.8605,3.88E-02
1.861,3.66E-02
1.8615,3.37E-02
1.862,2.98E-02
1.8625,2.47E-02
1.863,1.85E-02
1.8635,1.09E-02
1.864,1.92E-03
1.8645,-8.21E-03
1.865,-1.92E-02
1.8655,-3.02E-02
1.866,-4.04E-02
1.8665,-4.83E-02
1.867,-5.27E-02
1.8675,-5.23E-02
1.868,-4.62E-02
1.8685,-3.37E-02
1.869,-1.39E-02
1.8695,1.46E-02
1.87,5.46E-02
1.8705,1.12E-01
1.871,2.00E-01
1.8715,3.37E-01
1.872,4.98E-01
1.8725,5.50E-01
1.873,4.79E-01
1.8735,3.83E-01
1.874,2.99E-01
1.8745,2.33E-01
1.875,1.82E-01
1.8755,1.43E-01
1.876,1.11E-01
1.8765,8.60E-02
1.877,6.52E-02
1.8775,4.76E-02
1.878,3.23E-02
1.8785,1.86E-02
1.879,5.80E-03
1.8795,-6.56E-03
1.88,-1.91E-02
1.8805,-3.22E-02
1.881,-4.66E-02
1.8815,-6.29E-02
1.882,-8.18E-02
1.8825,-1.04E-01
1.883,-1.29E-01
1.8835,-1.57E-01
1.884,-1.88E-01
1.8845,-2.17E-01
1.885,-2.42E-01
1.8855,-2.59E-01
1.886,-2.67E-01
1.8865,-2.67E-01
1.887,-2.59E-01
1.8875,-2.46E-01
1.888,-2.30E-01
1.8885,-2.12E-01
1.889,-1.92E-01
1.8895,-1.73E-01
1.89,-1.54E-01
1.8905,-1.35E-01
1.891,-1.17E-01
1.8915,-9.94E-02
1.892,-8.25E-02
1.8925,-6.62E-02
1.893,-5.03E-02
1.8935,-3.47E-02
1.894,-1.94E-02
1.8945,-4.17E-03
1.895,1.09E-02
1.8955,2.60E-02
1.896,4.09E-02
1.8965,5.57E-02
1.897,7.02E-02
1.8975,8.41E-02
1.898,9.71E-02
1.8985,1.09E-01
1.899,1.19E-01
1.8995,1.27E-01
1.9,1.33E-01
1.9005,1.37E-01
1.901,1.38E-01
1.9015,1.38E-01
1.902,1.36E-01
1.9025,1.32E-01
1.903,1.27E-01
1.9035,1.22E-01
1.904,1.16E-01
1.9045,1.10E-01
1.905,1.04E-01
1.9055,9.81E-02
1.906,9.22E-02
1.9065,8.65E-02
1.907,8.11E-02
1.9075,7.60E-02
1.908,7.11E-02
1.9085,6.66E-02
1.909,6.23E-02
1.9095,5.84E-02
1.91,5.47E-02
1.9105,5.14E-02
1.911,4.82E-02
1.9115,4.54E-02
1.912,4.28E-02
1.9125,4.04E-02
1.913,3.82E-02
1.9135,3.62E-02
1.914,3.44E-02
1.9145,3.29E-02
1.915,3.14E-02
1.9155,3.02E-02
1.916,2.91E-02
1.9165,2.81E-02
1.917,2.73E-02
1.9175,2.66E-02
1.918,2.60E-02
1.9185,2.56E-02
1.919,2.52E-02
1.9195,2.49E-02
1.92,2.48E-02
1.9205,2.47E-02
1.921,2.47E-02
1.9215,2.49E-02
1.922,2.50E-02
1.9225,2.53E-02
1.923,2.56E-02
1.9235,2.60E-02
1.924,2.65E-02
1.9245,2.71E-02
1.925,2.77E-02
1.9255,2.83E-02
1.926,2.90E-02
1.9265,2.98E-02
1.927,3.06E-02
1.9275,3.15E-02
1.928,3.24E-02
1.9285,3.33E-02
1.929,3.43E-02
1.9295,3.53E-02
1.93,3.64E-02
1.9305,3.74E-02
1.931,3.85E-02
1.9315,3.96E-02
1.932,4.06E-02
1.9325,4.16E-02
1.933,4.26E-02
1.9335,4.34E-02
1.934,4.42E-02
1.9345,4.48E-02
1.935,4.53E-02
1.9355,4.55E-02
1.936,4.54E-02
1.9365,4.49E-02
1.937,4.40E-02
1.9375,4.25E-02
1.938,4.03E-02
1.9385,3.72E-02
1.939,3.32E-02
1.9395,2.80E-02
1.94,2.15E-02
1.9405,1.35E-02
1.941,4.07E-03
1.9415,-6.71E-03
1.942,-1.85E-02
1.9425,-3.04E-02
1.943,-4.16E-02
1.9435,-5.05E-02
1.944,-5.58E-02
1.9445,-5.60E-02
1.945,-5.03E-02
1.9455,-3.78E-02
1.946,-1.80E-02
1.9465,1.07E-02
1.947,5.11E-02
1.9475,1.10E-01
1.948,1.99E-01
1.9485,3.41E-01
1.949,5.10E-01
1.9495,5.59E-01
1.95,4.82E-01
1.9505,3.83E-01
1.951,2.99E-01
1.9515,2.33E-01
1.952,1.82E-01
1.9525,1.42E-01
1.953,1.11E-01
1.9535,8.57E-02
1.954,6.50E-02
1.9545,4.75E-02
1.955,3.24E-02
1.9555,1.90E-02
1.956,6.63E-03
1.9565,-5.15E-03
1.957,-1.68E-02
1.9575,-2.89E-02
1.958,-4.18E-02
1.9585,-5.61E-02
1.959,-7.23E-02
1.9595,-9.10E-02
1.96,-1.13E-01
1.9605,-1.37E-01
1.961,-1.64E-01
1.9615,-1.92E-01
1.962,-2.18E-01
1.9625,-2.39E-01
1.963,-2.53E-01
1.9635,-2.59E-01
1.964,-2.58E-01
1.9645,-2.50E-01
1.965,-2.38E-01
1.9655,-2.22E-01
1.966,-2.04E-01
1.9665,-1.86E-01
1.967,-1.67E-01
1.9675,-1.49E-01
1.968,-1.31E-01
1.9685,-1.13E-01
1.969,-9.64E-02
1.9695,-8.01E-02
1.97,-6.42E-02
1.9705,-4.88E-02
1.971,-3.36E-02
1.9715,-1.87E-02
1.972,-3.97E-03
1.9725,1.07E-02
1.973,2.52E-02
1.9735,3.97E-02
1.974,5.39E-02
1.9745,6.79E-02
1.975,8.13E-02
1.9755,9.39E-02
1.976,1.05E-01
1.9765,1.15E-01
1.977,1.23E-01
1.9775,1.30E-01
1.978,1.33E-01
1.9785,1.35E-01
1.979,1.35E-01
1.9795,1.33E-01
1.98,1.30E-01
1.9805,1.25E-01
1.981,1.20E-01
1.9815,1.15E-01
1.982,1.09E-01
1.9825,1.03E-01
1.983,9.71E-02
1.9835,9.14E-02
1.984,8.58E-02
1.9845,8.06E-02
1.985,7.55E-02
1.9855,7.08E-02
1.986,6.64E-02
1.9865,6.23E-02
1.987,5.85E-02
1.9875,5.50E-02
1.988,5.17E-02
1.9885,4.87E-02
1.989,4.60E-02
1.9895,4.35E-02
1.99,4.13E-02
1.9905,3.93E-02
1.991,3.75E-02
1.9915,3.58E-02
1.992,3.44E-02
1.9925,3.31E-02
1.993,3.20E-02
1.9935,3.11E-02
1.994,3.03E-02
1.9945,2.96E-02
1.995,2.91E-02
1.9955,2.87E-02
1.996,2.84E-02
1.9965,2.82E-02
1.997,2.81E-02
1.9975,2.81E-02
1.998,2.82E-02
1.9985,2.84E-02
1.999,2.87E-02
1.9995,2.91E-02
2,2.96E-02
2.0005,3.01E-02
2.001,3.07E-02
2.0015,3.13E-02
2.002,3.20E-02
2.0025,3.28E-02
2.003,3.36E-02
2.0035,3.44E-02
2.004,3.53E-02
2.0045,3.62E-02
2.005,3.71E-02
2.0055,3.80E-02
2.006,3.88E-02
2.0065,3.97E-02
2.007,4.04E-02
2.0075,4.11E-02
2.008,4.16E-02
2.0085,4.19E-02
2.009,4.20E-02
2.0095,4.18E-02
2.01,4.12E-02
2.0105,4.01E-02
2.011,3.85E-02
2.0115,3.62E-02
2.012,3.30E-02
2.0125,2.89E-02
2.013,2.36E-02
2.0135,1.71E-02
2.014,9.18E-03
2.0145,-3.56E-05
2.015,-1.04E-02
2.0155,-2.15E-02
2.016,-3.24E-02
2.0165,-4.23E-02
2.017,-4.96E-02
2.0175,-5.31E-02
2.018,-5.16E-02
2.0185,-4.43E-02
2.019,-3.03E-02
2.0195,-8.80E-03
2.02,2.17E-02
2.0205,6.48E-02
2.021,1.27E-01
2.0215,2.24E-01
2.022,3.72E-01
2.0225,5.23E-01
2.023,5.42E-01
2.0235,4.59E-01
2.024,3.64E-01
2.0245,2.84E-01
2.025,2.22E-01
2.0255,1.73E-01
2.026,1.36E-01
2.0265,1.06E-01
2.027,8.14E-02
2.0275,6.13E-02
2.028,4.42E-02
2.0285,2.93E-02
2.029,1.59E-02
2.0295,3.23E-03
2.03,-9.10E-03
2.0305,-2.17E-02
2.031,-3.50E-02
2.0315,-4.98E-02
2.032,-6.65E-02
2.0325,-8.58E-02
2.033,-1.08E-01
2.0335,-1.34E-01
2.034,-1.63E-01
2.0345,-1.93E-01
2.035,-2.22E-01
2.0355,-2.45E-01
2.036,-2.61E-01
2.0365,-2.67E-01
2.037,-2.65E-01
2.0375,-2.57E-01
2.038,-2.43E-01
2.0385,-2.26E-01
2.039,-2.08E-01
2.0395,-1.89E-01
2.04,-1.69E-01
2.0405,-1.50E-01
2.041,-1.31E-01
2.0415,-1.13E-01
2.042,-9.61E-02
2.0425,-7.94E-02
2.043,-6.31E-02
2.0435,-4.73E-02
2.044,-3.18E-02
2.0445,-1.65E-02
2.045,-1.31E-03
2.0455,1.38E-02
2.046,2.88E-02
2.0465,4.37E-02
2.047,5.84E-02
2.0475,7.28E-02
2.048,8.66E-02
2.0485,9.94E-02
2.049,1.11E-01
2.0495,1.21E-01
2.05,1.28E-01
2.0505,1.34E-01
2.051,1.37E-01
2.0515,1.38E-01
2.052,1.37E-01
2.0525,1.35E-01
2.053,1.31E-01
2.0535,1.26E-01
2.054,1.21E-01
2.0545,1.15E-01
2.055,1.09E-01
2.0555,1.03E-01
2.056,9.69E-02
2.0565,9.11E-02
2.057,8.55E-02
2.0575,8.01E-02
2.058,7.50E-02
2.0585,7.03E-02
2.059,6.58E-02
2.0595,6.16E-02
2.06,5.77E-02
2.0605,5.41E-02
2.061,5.08E-02
2.0615,4.77E-02
2.062,4.49E-02
2.0625,4.23E-02
2.063,4.00E-02
2.0635,3.78E-02
2.064,3.59E-02
2.0645,3.42E-02
2.065,3.26E-02
2.0655,3.12E-02
2.066,3.00E-02
2.0665,2.89E-02
2.067,2.80E-02
2.0675,2.72E-02
2.068,2.65E-02
2.0685,2.60E-02
2.069,2.55E-02
2.0695,2.52E-02
2.07,2.50E-02
2.0705,2.48E-02
2.071,2.48E-02
2.0715,2.48E-02
2.072,2.50E-02
2.0725,2.52E-02
2.073,2.54E-02
2.0735,2.58E-02
2.074,2.62E-02
2.0745,2.67E-02
2.075,2.73E-02
2.0755,2.79E-02
2.076,2.85E-02
2.0765,2.93E-02
2.077,3.01E-02
2.0775,3.09E-02
2.078,3.18E-02
2.0785,3.27E-02
2.079,3.36E-02
2.0795,3.46E-02
2.08,3.57E-02
2.0805,3.67E-02
2.081,3.78E-02
2.0815,3.88E-02
2.082,3.99E-02
2.0825,4.09E-02
2.083,4.19E-02
2.0835,4.28E-02
2.084,4.37E-02
2.0845,4.44E-02
2.085,4.49E-02
2.0855,4.53E-02
2.086,4.54E-02
2.0865,4.52E-02
2.087,4.46E-02
2.0875,4.35E-02
2.088,4.17E-02
2.0885,3.93E-02
2.089,3.59E-02
2.0895,3.15E-02
2.09,2.59E-02
2.0905,1.89E-02
2.091,1.04E-02
2.0915,4.68E-04
2.092,-1.07E-02
2.0925,-2.26E-02
2.093,-3.44E-02
2.0935,-4.50E-02
2.094,-5.28E-02
2.0945,-5.64E-02
2.095,-5.47E-02
2.0955,-4.67E-02
2.096,-3.18E-02
2.0965,-9.08E-03
2.097,2.32E-02
2.0975,6.88E-02
2.098,1.36E-01
2.0985,2.42E-01
2.099,4.02E-01
2.0995,5.46E-01
2.1,5.40E-01
2.1005,4.48E-01
2.101,3.52E-01
2.1015,2.74E-01
2.102,2.14E-01
2.1025,1.67E-01
2.103,1.31E-01
2.1035,1.02E-01
2.104,7.81E-02
2.1045,5.86E-02
2.105,4.21E-02
2.1055,2.76E-02
2.106,1.46E-02
2.1065,2.51E-03
2.107,-9.20E-03
2.1075,-2.10E-02
2.108,-3.33E-02
2.1085,-4.66E-02
2.109,-6.16E-02
2.1095,-7.86E-02
2.11,-9.83E-02
2.1105,-1.21E-01
2.111,-1.46E-01
2.1115,-1.74E-01
2.112,-2.01E-01
2.1125,-2.26E-01
2.113,-2.45E-01
2.1135,-2.57E-01
2.114,-2.60E-01
2.1145,-2.56E-01
2.115,-2.46E-01
2.1155,-2.32E-01
2.116,-2.16E-01
2.1165,-1.98E-01
2.117,-1.79E-01
2.1175,-1.61E-01
2.118,-1.42E-01
2.1185,-1.25E-01
2.119,-1.07E-01
2.1195,-9.05E-02
2.12,-7.43E-02
2.1205,-5.86E-02
2.121,-4.32E-02
2.1215,-2.82E-02
2.122,-1.34E-02
2.1225,1.36E-03
2.123,1.60E-02
2.1235,3.05E-02
2.124,4.49E-02
2.1245,5.91E-02
2.125,7.29E-02
2.1255,8.61E-02
2.126,9.83E-02
2.1265,1.09E-01
2.127,1.19E-01
2.1275,1.26E-01
2.128,1.31E-01
2.1285,1.34E-01
2.129,1.35E-01
2.1295,1.35E-01
2.13,1.32E-01
2.1305,1.28E-01
2.131,1.24E-01
2.1315,1.18E-01
2.132,1.13E-01
2.1325,1.07E-01
2.133,1.01E-01
2.1335,9.50E-02
2.134,8.94E-02
2.1345,8.39E-02
2.135,7.87E-02
2.1355,7.38E-02
2.136,6.92E-02
2.1365,6.49E-02
2.137,6.09E-02
2.1375,5.72E-02
2.138,5.38E-02
2.1385,5.06E-02
2.139,4.77E-02
2.1395,4.51E-02
2.14,4.27E-02
2.1405,4.05E-02
2.141,3.86E-02
2.1415,3.68E-02
2.142,3.53E-02
2.1425,3.39E-02
2.143,3.27E-02
2.1435,3.16E-02
2.144,3.07E-02
2.1445,3.00E-02
2.145,2.94E-02
2.1455,2.89E-02
2.146,2.85E-02
2.1465,2.82E-02
2.147,2.81E-02
2.1475,2.80E-02
2.148,2.81E-02
2.1485,2.82E-02
2.149,2.85E-02
2.1495,2.88E-02
2.15,2.92E-02
2.1505,2.97E-02
2.151,3.02E-02
2.1515,3.08E-02
2.152,3.15E-02
2.1525,3.22E-02
2.153,3.30E-02
2.1535,3.38E-02
2.154,3.47E-02
2.1545,3.55E-02
2.155,3.64E-02
2.1555,3.73E-02
2.156,3.82E-02
2.1565,3.91E-02
2.157,3.99E-02
2.1575,4.06E-02
2.158,4.12E-02
2.1585,4.17E-02
2.159,4.20E-02
2.1595,4.20E-02
2.16,4.17E-02
2.1605,4.11E-02
2.161,3.99E-02
2.1615,3.81E-02
2.162,3.56E-02
2.1625,3.23E-02
2.163,2.79E-02
2.1635,2.24E-02
2.164,1.56E-02
2.1645,7.36E-03
2.165,-2.14E-03
2.1655,-1.27E-02
2.166,-2.38E-02
2.1665,-3.47E-02
2.167,-4.41E-02
2.1675,-5.08E-02
2.168,-5.33E-02
2.1685,-5.06E-02
2.169,-4.19E-02
2.1695,-2.64E-02
2.17,-3.12E-03
2.1705,2.97E-02
2.171,7.62E-02
2.1715,1.45E-01
2.172,2.51E-01
2.1725,4.09E-01
2.173,5.41E-01
2.1735,5.28E-01
2.174,4.38E-01
2.1745,3.45E-01
2.175,2.69E-01
2.1755,2.10E-01
2.176,1.64E-01
2.1765,1.28E-01
2.177,9.99E-02
2.1775,7.67E-02
2.178,5.74E-02
2.1785,4.09E-02
2.179,2.63E-02
2.1795,1.31E-02
2.18,5.77E-04
2.1805,-1.18E-02
2.181,-2.44E-02
2.1815,-3.80E-02
2.182,-5.31E-02
2.1825,-7.03E-02
2.183,-9.02E-02
2.1835,-1.13E-01
2.184,-1.40E-01
2.1845,-1.69E-01
2.185,-1.99E-01
2.1855,-2.27E-01
2.186,-2.49E-01
2.1865,-2.63E-01
2.187,-2.67E-01
2.1875,-2.64E-01
2.188,-2.54E-01
2.1885,-2.40E-01
2.189,-2.23E-01
2.1895,-2.04E-01
2.19,-1.85E-01
2.1905,-1.65E-01
2.191,-1.46E-01
2.1915,-1.28E-01
2.192,-1.10E-01
2.1925,-9.27E-02
2.193,-7.61E-02
2.1935,-5.99E-02
2.194,-4.42E-02
2.1945,-2.87E-02
2.195,-1.34E-02
2.1955,1.69E-03
2.196,1.68E-02
2.1965,3.17E-02
2.197,4.66E-02
2.1975,6.13E-02
2.198,7.55E-02
2.1985,8.91E-02
2.199,1.02E-01
2.1995,1.13E-01
2.2,1.22E-01
2.2005,1.30E-01
2.201,1.35E-01
2.2015,1.38E-01
2.202,1.38E-01
2.2025,1.37E-01
2.203,1.34E-01
2.2035,1.30E-01
2.204,1.25E-01
2.2045,1.20E-01
2.205,1.14E-01
2.2055,1.08E-01
2.206,1.02E-01
2.2065,9.57E-02
2.207,8.99E-02
2.2075,8.44E-02
2.208,7.91E-02
2.2085,7.41E-02
2.209,6.93E-02
2.2095,6.49E-02
2.21,6.08E-02
2.2105,5.70E-02
2.211,5.34E-02
2.2115,5.01E-02
2.212,4.71E-02
2.2125,4.44E-02
2.213,4.18E-02
2.2135,3.95E-02
2.214,3.74E-02
2.2145,3.56E-02
2.215,3.39E-02
2.2155,3.23E-02
2.216,3.10E-02
2.2165,2.98E-02
2.217,2.88E-02
2.2175,2.79E-02
2.218,2.71E-02
2.2185,2.64E-02
2.219,2.59E-02
2.2195,2.55E-02
2.22,2.52E-02
2.2205,2.50E-02
2.221,2.49E-02
2.2215,2.49E-02
2.222,2.49E-02
2.2225,2.51E-02
2.223,2.53E-02
2.2235,2.56E-02
2.224,2.59E-02
2.2245,2.64E-02
2.225,2.69E-02
2.2255,2.75E-02
2.226,2.81E-02
2.2265,2.88E-02
2.227,2.95E-02
2.2275,3.03E-02
2.228,3.12E-02
2.2285,3.20E-02
2.229,3.30E-02
2.2295,3.39E-02
2.23,3.49E-02
2.2305,3.60E-02
2.231,3.70E-02
2.2315,3.81E-02
2.232,3.91E-02
2.2325,4.02E-02
2.233,4.12E-02
2.2335,4.22E-02
2.234,4.31E-02
2.2345,4.39E-02
2.235,4.45E-02
2.2355,4.50E-02
2.236,4.53E-02
2.2365,4.53E-02
2.237,4.50E-02
2.2375,4.42E-02
2.238,4.29E-02
2.2385,4.09E-02
2.239,3.82E-02
2.2395,3.45E-02
2.24,2.97E-02
2.2405,2.36E-02
2.241,1.61E-02
2.2415,7.15E-03
2.242,-3.21E-03
2.2425,-1.47E-02
2.243,-2.67E-02
2.2435,-3.82E-02
2.244,-4.80E-02
2.2445,-5.45E-02
2.245,-5.64E-02
2.2455,-5.26E-02
2.246,-4.24E-02
2.2465,-2.50E-02
2.247,7.17E-04
2.2475,3.69E-02
2.248,8.86E-02
2.2485,1.66E-01
2.249,2.90E-01
2.2495,4.61E-01
2.25,5.61E-01
2.2505,5.12E-01
2.251,4.14E-01
2.2515,3.24E-01
2.252,2.52E-01
2.2525,1.96E-01
2.253,1.54E-01
2.2535,1.20E-01
2.254,9.31E-02
2.2545,7.11E-02
2.255,5.27E-02
2.2555,3.70E-02
2.256,2.31E-02
2.2565,1.04E-02
2.257,-1.50E-03
2.2575,-1.32E-02
2.258,-2.51E-02
2.2585,-3.77E-02
2.259,-5.16E-02
2.2595,-6.72E-02
2.26,-8.51E-02
2.2605,-1.06E-01
2.261,-1.30E-01
2.2615,-1.56E-01
2.262,-1.84E-01
2.2625,-2.11E-01
2.263,-2.34E-01
2.2635,-2.50E-01
2.264,-2.59E-01
2.2645,-2.59E-01
2.265,-2.53E-01
2.2655,-2.42E-01
2.266,-2.27E-01
2.2665,-2.10E-01
2.267,-1.91E-01
2.2675,-1.73E-01
2.268,-1.54E-01
2.2685,-1.36E-01
2.269,-1.18E-01
2.2695,-1.01E-01
2.27,-8.47E-02
2.2705,-6.87E-02
2.271,-5.31E-02
2.2715,-3.79E-02
2.272,-2.29E-02
2.2725,-8.12E-03
2.273,6.56E-03
2.2735,2.11E-02
2.274,3.56E-02
2.2745,5.00E-02
2.275,6.41E-02
2.2755,7.77E-02
2.276,9.06E-02
2.2765,1.02E-01
2.277,1.13E-01
2.2775,1.22E-01
2.278,1.28E-01
2.2785,1.33E-01
2.279,1.35E-01
2.2795,1.35E-01
2.28,1.34E-01
2.2805,1.31E-01
2.281,1.27E-01
2.2815,1.22E-01
2.282,1.16E-01
2.2825,1.11E-01
2.283,1.05E-01
2.2835,9.88E-02
2.284,9.30E-02
2.2845,8.74E-02
2.285,8.20E-02
2.2855,7.69E-02
2.286,7.21E-02
2.2865,6.76E-02
2.287,6.34E-02
2.2875,5.95E-02
2.288,5.59E-02
2.2885,5.26E-02
2.289,4.95E-02
2.2895,4.67E-02
2.29,4.42E-02
2.2905,4.19E-02
2.291,3.98E-02
2.2915,3.79E-02
2.292,3.62E-02
2.2925,3.47E-02
2.293,3.34E-02
2.2935,3.23E-02
2.294,3.13E-02
2.2945,3.04E-02
2.295,2.97E-02
2.2955,2.91E-02
2.296,2.87E-02
2.2965,2.83E-02
2.297,2.81E-02
2.2975,2.80E-02
2.298,2.80E-02
2.2985,2.81E-02
2.299,2.83E-02
2.2995,2.85E-02
2.3,2.89E-02
2.3005,2.93E-02
2.301,2.98E-02
2.3015,3.03E-02
2.302,3.10E-02
2.3025,3.17E-02
2.303,3.24E-02
2.3035,3.32E-02
2.304,3.40E-02
2.3045,3.49E-02
2.305,3.58E-02
2.3055,3.67E-02
2.306,3.76E-02
2.3065,3.85E-02
2.307,3.93E-02
2.3075,4.01E-02
2.308,4.08E-02
2.3085,4.14E-02
2.309,4.19E-02
2.3095,4.21E-02
2.31,4.21E-02
2.3105,4.17E-02
2.311,4.09E-02
2.3115,3.96E-02
2.312,3.77E-02
2.3125,3.50E-02
2.313,3.15E-02
2.3135,2.69E-02
2.314,2.10E-02
2.3145,1.39E-02
2.315,5.40E-03
2.3155,-4.37E-03
2.316,-1.51E-02
2.3165,-2.63E-02
2.317,-3.70E-02
2.3175,-4.59E-02
2.318,-5.18E-02
2.3185,-5.32E-02
2.319,-4.93E-02
2.3195,-3.91E-02
2.32,-2.20E-02
2.3205,3.22E-03
2.321,3.87E-02
2.3215,8.91E-02
2.322,1.64E-01
2.3225,2.83E-01
2.323,4.46E-01
2.3235,5.51E-01
2.324,5.11E-01
2.3245,4.16E-01
2.325,3.27E-01
2.3255,2.55E-01
2.326,1.99E-01
2.3265,1.56E-01
2.327,1.22E-01
2.3275,9.44E-02
2.328,7.21E-02
2.3285,5.35E-02
2.329,3.75E-02
2.3295,2.33E-02
2.33,1.03E-02
2.3305,-2.15E-03
2.331,-1.45E-02
2.3315,-2.73E-02
2.332,-4.11E-02
2.3325,-5.66E-02
2.333,-7.43E-02
2.3335,-9.49E-02
2.334,-1.19E-01
2.3345,-1.46E-01
2.335,-1.76E-01
2.3355,-2.05E-01
2.336,-2.32E-01
2.3365,-2.53E-01
2.337,-2.64E-01
2.3375,-2.67E-01
2.338,-2.62E-01
2.3385,-2.51E-01
2.339,-2.36E-01
2.3395,-2.19E-01
2.34,-2.00E-01
2.3405,-1.81E-01
2.341,-1.61E-01
2.3415,-1.42E-01
2.342,-1.24E-01
2.3425,-1.06E-01
2.343,-8.92E-02
2.3435,-7.26E-02
2.344,-5.66E-02
2.3445,-4.09E-02
2.345,-2.55E-02
2.3455,-1.03E-02
2.346,4.82E-03
2.3465,1.99E-02
2.347,3.48E-02
2.3475,4.97E-02
2.348,6.43E-02
2.3485,7.84E-02
2.349,9.18E-02
2.3495,1.04E-01
2.35,1.15E-01
2.3505,1.24E-01
2.351,1.31E-01
2.3515,1.35E-01
2.352,1.38E-01
2.3525,1.38E-01
2.353,1.37E-01
2.3535,1.33E-01
2.354,1.29E-01
2.3545,1.24E-01
2.355,1.19E-01
2.3555,1.13E-01
2.356,1.07E-01
2.3565,1.00E-01
2.357,9.45E-02
2.3575,8.88E-02
2.358,8.32E-02
2.3585,7.80E-02
2.359,7.30E-02
2.3595,6.84E-02
2.36,6.40E-02
2.3605,6.00E-02
2.361,5.62E-02
2.3615,5.27E-02
2.362,4.95E-02
2.3625,4.65E-02
2.363,4.38E-02
2.3635,4.14E-02
2.364,3.91E-02
2.3645,3.71E-02
2.365,3.52E-02
2.3655,3.36E-02
2.366,3.21E-02
2.3665,3.08E-02
2.367,2.96E-02
2.3675,2.86E-02
2.368,2.77E-02
2.3685,2.70E-02
2.369,2.64E-02
2.3695,2.59E-02
2.37,2.55E-02
2.3705,2.52E-02
2.371,2.50E-02
2.3715,2.49E-02
2.372,2.49E-02
2.3725,2.50E-02
2.373,2.52E-02
2.3735,2.54E-02
2.374,2.57E-02
2.3745,2.61E-02
2.375,2.66E-02
2.3755,2.71E-02
2.376,2.77E-02
2.3765,2.83E-02
2.377,2.90E-02
2.3775,2.98E-02
2.378,3.06E-02
2.3785,3.14E-02
2.379,3.23E-02
2.3795,3.33E-02
2.38,3.42E-02
2.3805,3.53E-02
2.381,3.63E-02
2.3815,3.73E-02
2.382,3.84E-02
2.3825,3.94E-02
2.383,4.05E-02
2.3835,4.15E-02
2.384,4.24E-02
2.3845,4.33E-02
2.385,4.41E-02
2.3855,4.47E-02
2.386,4.51E-02
2.3865,4.53E-02
2.387,4.52E-02
2.3875,4.47E-02
2.388,4.38E-02
2.3885,4.23E-02
2.389,4.01E-02
2.3895,3.70E-02
2.39,3.30E-02
2.3905,2.78E-02
2.391,2.12E-02
2.3915,1.33E-02
2.392,3.82E-03
2.3925,-6.96E-03
2.393,-1.87E-02
2.3935,-3.06E-02
2.394,-4.17E-02
2.3945,-5.05E-02
2.395,-5.57E-02
2.3955,-5.58E-02
2.396,-4.99E-02
2.3965,-3.73E-02
2.397,-1.73E-02
2.3975,1.15E-02
2.398,5.22E-02
2.3985,1.11E-01
2.399,2.01E-01
2.3995,3.44E-01
2.4,5.11E-01
2.4005,5.58E-01
2.401,4.81E-01
2.4015,3.82E-01
2.402,2.98E-01
2.4025,2.32E-01
2.403,1.81E-01
2.4035,1.42E-01
2.404,1.10E-01
2.4045,8.53E-02
2.405,6.46E-02
2.4055,4.72E-02
2.406,3.21E-02
2.4065,1.87E-02
2.407,6.37E-03
2.4075,-5.43E-03
2.408,-1.71E-02
2.4085,-2.93E-02
2.409,-4.23E-02
2.4095,-5.67E-02
2.41,-7.30E-02
2.4105,-9.19E-02
2.411,-1.14E-01
2.4115,-1.38E-01
2.412,-1.66E-01
2.4125,-1.93E-01
2.413,-2.19E-01
2.4135,-2.40E-01
2.414,-2.54E-01
2.4145,-2.60E-01
2.415,-2.58E-01
2.4155,-2.50E-01
2.416,-2.37E-01
2.4165,-2.21E-01
2.417,-2.04E-01
2.4175,-1.85E-01
2.418,-1.66E-01
2.4185,-1.48E-01
2.419,-1.30E-01
2.4195,-1.12E-01
2.42,-9.55E-02
2.4205,-7.91E-02
2.421,-6.33E-02
2.4215,-4.78E-02
2.422,-3.27E-02
2.4225,-1.77E-02
2.423,-2.99E-03
2.4235,1.17E-02
2.424,2.62E-02
2.4245,4.07E-02
2.425,5.50E-02
2.4255,6.89E-02
2.426,8.23E-02
2.4265,9.49E-02
2.427,1.06E-01
2.4275,1.16E-01
2.428,1.24E-01
2.4285,1.30E-01
2.429,1.34E-01
2.4295,1.35E-01
2.43,1.35E-01
2.4305,1.33E-01
2.431,1.30E-01
2.4315,1.25E-01
2.432,1.20E-01
2.4325,1.14E-01
2.433,1.09E-01
2.4335,1.03E-01
2.434,9.68E-02
2.4345,9.10E-02
2.435,8.55E-02
2.4355,8.02E-02
2.436,7.52E-02
2.4365,7.05E-02
2.437,6.61E-02
2.4375,6.20E-02
2.438,5.82E-02
2.4385,5.47E-02
2.439,5.15E-02
2.4395,4.85E-02
2.44,4.58E-02
2.4405,4.34E-02
2.441,4.11E-02
2.4415,3.91E-02
2.442,3.73E-02
2.4425,3.57E-02
2.443,3.42E-02
2.4435,3.30E-02
2.444,3.19E-02
2.4445,3.09E-02
2.445,3.01E-02
2.4455,2.95E-02
2.446,2.89E-02
2.4465,2.85E-02
2.447,2.82E-02
2.4475,2.80E-02
2.448,2.79E-02
2.4485,2.80E-02
2.449,2.81E-02
2.4495,2.83E-02
2.45,2.86E-02
2.4505,2.89E-02
2.451,2.94E-02
2.4515,2.99E-02
2.452,3.05E-02
2.4525,3.11E-02
2.453,3.18E-02
2.4535,3.26E-02
2.454,3.34E-02
2.4545,3.42E-02
2.455,3.51E-02
2.4555,3.60E-02
2.456,3.69E-02
2.4565,3.78E-02
2.457,3.87E-02
2.4575,3.96E-02
2.458,4.03E-02
2.4585,4.10E-02
2.459,4.16E-02
2.4595,4.20E-02
2.46,4.22E-02
2.4605,4.21E-02
2.461,4.16E-02
2.4615,4.07E-02
2.462,3.93E-02
2.4625,3.72E-02
2.463,3.44E-02
2.4635,3.06E-02
2.464,2.57E-02
2.4645,1.96E-02
2.465,1.21E-02
2.4655,3.31E-03
2.466,-6.73E-03
2.4665,-1.77E-02
2.467,-2.88E-02
2.4675,-3.92E-02
2.468,-4.76E-02
2.4685,-5.26E-02
2.469,-5.29E-02
2.4695,-4.76E-02
2.47,-3.59E-02
2.4705,-1.70E-02
2.471,1.02E-02
2.4715,4.86E-02
2.472,1.04E-01
2.4725,1.87E-01
2.473,3.17E-01
2.4735,4.82E-01
2.474,5.53E-01
2.4745,4.91E-01
2.475,3.94E-01
2.4755,3.09E-01
2.476,2.41E-01
2.4765,1.88E-01
2.477,1.47E-01
2.4775,1.15E-01
2.478,8.89E-02
2.4785,6.76E-02
2.479,4.96E-02
2.4795,3.41E-02
2.48,2.02E-02
2.4805,7.40E-03
2.481,-4.95E-03
2.4815,-1.73E-02
2.482,-3.03E-02
2.4825,-4.44E-02
2.483,-6.03E-02
2.4835,-7.86E-02
2.484,-9.99E-02
2.4845,-1.25E-01
2.485,-1.52E-01
2.4855,-1.82E-01
2.486,-2.12E-01
2.4865,-2.37E-01
2.487,-2.56E-01
2.4875,-2.66E-01
2.488,-2.67E-01
2.4885,-2.60E-01
2.489,-2.48E-01
2.4895,-2.33E-01
2.49,-2.15E-01
2.4905,-1.96E-01
2.491,-1.76E-01
2.4915,-1.57E-01
2.492,-1.38E-01
2.4925,-1.20E-01
2.493,-1.02E-01
2.4935,-8.55E-02
2.494,-6.91E-02
2.4945,-5.32E-02
2.495,-3.76E-02
2.4955,-2.22E-02
2.496,-7.03E-03
2.4965,8.05E-03
2.497,2.31E-02
2.4975,3.80E-02
2.498,5.28E-02
2.4985,6.73E-02
2.499,8.13E-02
2.4995,9.45E-02
2.5,1.07E-01
2.5005,1.17E-01
2.501,1.26E-01
2.5015,1.32E-01
2.502,1.36E-01
2.5025,1.38E-01
2.503,1.38E-01
2.5035,1.36E-01
2.504,1.33E-01
2.5045,1.28E-01
2.505,1.23E-01
2.5055,1.17E-01
2.506,1.11E-01
2.5065,1.05E-01
2.507,9.91E-02
2.5075,9.32E-02
2.508,8.75E-02
2.5085,8.21E-02
2.509,7.69E-02
2.5095,7.20E-02
2.51,6.74E-02
2.5105,6.31E-02
2.511,5.91E-02
2.5115,5.54E-02
2.512,5.20E-02
2.5125,4.88E-02
2.513,4.59E-02
2.5135,4.33E-02
2.514,4.09E-02
2.5145,3.87E-02
2.515,3.67E-02
2.5155,3.49E-02
2.516,3.33E-02
2.5165,3.18E-02
2.517,3.05E-02
2.5175,2.94E-02
2.518,2.84E-02
2.5185,2.76E-02
2.519,2.69E-02
2.5195,2.63E-02
2.52,2.58E-02
2.5205,2.55E-02
2.521,2.52E-02
2.5215,2.50E-02
2.522,2.50E-02
2.5225,2.50E-02
2.523,2.51E-02
2.5235,2.53E-02
2.524,2.55E-02
2.5245,2.59E-02
2.525,2.63E-02
2.5255,2.67E-02
2.526,2.73E-02
2.5265,2.79E-02
2.527,2.85E-02
2.5275,2.92E-02
2.528,3.00E-02
2.5285,3.08E-02
2.529,3.17E-02
2.5295,3.26E-02
2.53,3.36E-02
2.5305,3.46E-02
2.531,3.56E-02
2.5315,3.66E-02
2.532,3.77E-02
2.5325,3.87E-02
2.533,3.98E-02
2.5335,4.08E-02
2.534,4.18E-02
2.5345,4.27E-02
2.535,4.35E-02
2.5355,4.42E-02
2.536,4.48E-02
2.5365,4.52E-02
2.537,4.53E-02
2.5375,4.51E-02
2.538,4.44E-02
2.5385,4.33E-02
2.539,4.16E-02
2.5395,3.91E-02
2.54,3.58E-02
2.5405,3.14E-02
2.541,2.57E-02
2.5415,1.87E-02
2.542,1.03E-02
2.5425,3.80E-04
2.543,-1.08E-02
2.5435,-2.26E-02
2.544,-3.44E-02
2.5445,-4.49E-02
2.545,-5.27E-02
2.5455,-5.63E-02
2.546,-5.45E-02
2.5465,-4.65E-02
2.547,-3.16E-02
2.5475,-8.82E-03
2.548,2.35E-02
2.5485,6.91E-02
2.549,1.36E-01
2.5495,2.42E-01
2.55,4.02E-01
2.5505,5.46E-01
2.551,5.40E-01
2.5515,4.47E-01
2.552,3.52E-01
2.5525,2.74E-01
2.553,2.13E-01
2.5535,1.67E-01
2.554,1.30E-01
2.5545,1.02E-01
2.555,7.80E-02
2.5555,5.86E-02
2.556,4.20E-02
2.5565,2.76E-02
2.557,1.45E-02
2.5575,2.42E-03
2.558,-9.30E-03
2.5585,-2.11E-02
2.559,-3.35E-02
2.5595,-4.69E-02
2.56,-6.19E-02
2.5605,-7.91E-02
2.561,-9.89E-02
2.5615,-1.22E-01
2.562,-1.47E-01
2.5625,-1.75E-01
2.563,-2.03E-01
2.5635,-2.27E-01
2.564,-2.46E-01
2.5645,-2.57E-01
2.565,-2.60E-01
2.5655,-2.56E-01
2.566,-2.46E-01
2.5665,-2.32E-01
2.567,-2.15E-01
2.5675,-1.97E-01
2.568,-1.79E-01
2.5685,-1.60E-01
2.569,-1.42E-01
2.5695,-1.24E-01
2.57,-1.07E-01
2.5705,-8.98E-02
2.571,-7.36E-02
2.5715,-5.79E-02
2.572,-4.26E-02
2.5725,-2.75E-02
2.573,-1.27E-02
2.5735,2.05E-03
2.574,1.67E-02
2.5745,3.12E-02
2.575,4.56E-02
2.5755,5.98E-02
2.576,7.36E-02
2.5765,8.68E-02
2.577,9.90E-02
2.5775,1.10E-01
2.578,1.19E-01
2.5785,1.26E-01
2.579,1.32E-01
2.5795,1.35E-01
2.58,1.35E-01
2.5805,1.35E-01
2.581,1.32E-01
2.5815,1.28E-01
2.582,1.24E-01
2.5825,1.18E-01
2.583,1.12E-01
2.5835,1.07E-01
2.584,1.01E-01
2.5845,9.48E-02
2.585,8.91E-02
2.5855,8.37E-02
2.586,7.85E-02
2.5865,7.36E-02
2.587,6.90E-02
2.5875,6.47E-02
2.588,6.07E-02
2.5885,5.70E-02
2.589,5.36E-02
2.5895,5.04E-02
2.59,4.76E-02
2.5905,4.49E-02
2.591,4.25E-02
2.5915,4.04E-02
2.592,3.84E-02
2.5925,3.67E-02
2.593,3.51E-02
2.5935,3.38E-02
2.594,3.25E-02
2.5945,3.15E-02
2.595,3.06E-02
2.5955,2.98E-02
2.596,2.92E-02
2.5965,2.87E-02
2.597,2.84E-02
2.5975,2.81E-02
2.598,2.79E-02
2.5985,2.79E-02
2.599,2.79E-02
2.5995,2.81E-02
2.6,2.83E-02
2.6005,2.86E-02
2.601,2.90E-02
2.6015,2.95E-02
2.602,3.00E-02
2.6025,3.06E-02
2.603,3.13E-02
2.6035,3.20E-02
2.604,3.28E-02
2.6045,3.36E-02
2.605,3.45E-02
2.6055,3.54E-02
2.606,3.63E-02
2.6065,3.72E-02
2.607,3.81E-02
2.6075,3.90E-02
2.608,3.98E-02
2.6085,4.06E-02
2.609,4.12E-02
2.6095,4.17E-02
2.61,4.21E-02
2.6105,4.22E-02
2.611,4.21E-02
2.6115,4.15E-02
2.612,4.05E-02
2.6125,3.90E-02
2.613,3.67E-02
2.6135,3.36E-02
2.614,2.96E-02
2.6145,2.44E-02
2.615,1.80E-02
2.6155,1.02E-02
2.616,1.11E-03
2.6165,-9.20E-03
2.617,-2.03E-02
2.6175,-3.14E-02
2.618,-4.14E-02
2.6185,-4.91E-02
2.619,-5.31E-02
2.6195,-5.22E-02
2.62,-4.55E-02
2.6205,-3.22E-02
2.621,-1.15E-02
2.6215,1.80E-02
2.622,5.96E-02
2.6225,1.20E-01
2.623,2.13E-01
2.6235,3.56E-01
2.624,5.13E-01
2.6245,5.47E-01
2.625,4.69E-01
2.6255,3.73E-01
2.626,2.91E-01
2.6265,2.27E-01
2.627,1.77E-01
2.6275,1.39E-01
2.628,1.08E-01
2.6285,8.35E-02
2.629,6.31E-02
2.6295,4.58E-02
2.63,3.07E-02
2.6305,1.72E-02
2.631,4.50E-03
2.6315,-7.80E-03
2.632,-2.03E-02
2.6325,-3.34E-02
2.633,-4.79E-02
2.6335,-6.43E-02
2.634,-8.32E-02
2.6345,-1.05E-01
2.635,-1.31E-01
2.6355,-1.59E-01
2.636,-1.89E-01
2.6365,-2.18E-01
2.637,-2.42E-01
2.6375,-2.59E-01
2.638,-2.66E-01
2.6385,-2.66E-01
2.639,-2.58E-01
2.6395,-2.45E-01
2.64,-2.29E-01
2.6405,-2.11E-01
2.641,-1.91E-01
2.6415,-1.72E-01
2.642,-1.53E-01
2.6425,-1.34E-01
2.643,-1.16E-01
2.6435,-9.86E-02
2.644,-8.18E-02
2.6445,-6.55E-02
2.645,-4.97E-02
2.6455,-3.41E-02
2.646,-1.88E-02
2.6465,-3.69E-03
2.647,1.14E-02
2.6475,2.64E-02
2.648,4.13E-02
2.6485,5.60E-02
2.649,7.04E-02
2.6495,8.43E-02
2.65,9.72E-02
2.6505,1.09E-01
2.651,1.19E-01
2.6515,1.27E-01
2.652,1.33E-01
2.6525,1.37E-01
2.653,1.38E-01
2.6535,1.38E-01
2.654,1.35E-01
2.6545,1.32E-01
2.655,1.27E-01
2.6555,1.22E-01
2.656,1.16E-01
2.6565,1.10E-01
2.657,1.04E-01
2.6575,9.78E-02
2.658,9.20E-02
2.6585,8.63E-02
2.659,8.09E-02
2.6595,7.58E-02
2.66,7.10E-02
2.6605,6.64E-02
2.661,6.22E-02
2.6615,5.83E-02
2.662,5.47E-02
2.6625,5.13E-02
2.663,4.82E-02
2.6635,4.53E-02
2.664,4.27E-02
2.6645,4.04E-02
2.665,3.82E-02
2.6655,3.63E-02
2.666,3.45E-02
2.6665,3.29E-02
2.667,3.15E-02
2.6675,3.03E-02
2.668,2.92E-02
2.6685,2.83E-02
2.669,2.75E-02
2.6695,2.68E-02
2.67,2.62E-02
2.6705,2.58E-02
2.671,2.54E-02
2.6715,2.52E-02
2.672,2.50E-02
2.6725,2.50E-02
2.673,2.50E-02
2.6735,2.52E-02
2.674,2.54E-02
2.6745,2.56E-02
2.675,2.60E-02
2.6755,2.64E-02
2.676,2.69E-02
2.6765,2.75E-02
2.677,2.81E-02
2.6775,2.88E-02
2.678,2.95E-02
2.6785,3.03E-02
2.679,3.11E-02
2.6795,3.20E-02
2.68,3.29E-02
2.6805,3.39E-02
2.681,3.49E-02
2.6815,3.59E-02
2.682,3.69E-02
2.6825,3.80E-02
2.683,3.90E-02
2.6835,4.01E-02
2.684,4.11E-02
2.6845,4.20E-02
2.685,4.29E-02
2.6855,4.37E-02
2.686,4.44E-02
2.6865,4.49E-02
2.687,4.52E-02
2.6875,4.52E-02
2.688,4.49E-02
2.6885,4.41E-02
2.689,4.28E-02
2.6895,4.08E-02
2.69,3.81E-02
2.6905,3.44E-02
2.691,2.96E-02
2.6915,2.36E-02
2.692,1.61E-02
2.6925,7.18E-03
2.693,-3.15E-03
2.6935,-1.46E-02
2.694,-2.65E-02
2.6945,-3.80E-02
2.695,-4.78E-02
2.6955,-5.43E-02
2.696,-5.63E-02
2.6965,-5.25E-02
2.697,-4.24E-02
2.6975,-2.50E-02
2.698,5.81E-04
2.6985,3.67E-02
2.699,8.81E-02
2.6995,1.66E-01
2.7,2.88E-01
2.7005,4.59E-01
2.701,5.61E-01
2.7015,5.13E-01
2.702,4.15E-01
2.7025,3.24E-01
2.703,2.52E-01
2.7035,1.97E-01
2.704,1.54E-01
2.7045,1.20E-01
2.705,9.33E-02
2.7055,7.13E-02
2.706,5.29E-02
2.7065,3.71E-02
2.707,2.32E-02
2.7075,1.05E-02
2.708,-1.44E-03
2.7085,-1.31E-02
2.709,-2.51E-02
2.7095,-3.78E-02
2.71,-5.17E-02
2.7105,-6.74E-02
2.711,-8.54E-02
2.7115,-1.06E-01
2.712,-1.30E-01
2.7125,-1.57E-01
2.713,-1.84E-01
2.7135,-2.11E-01
2.714,-2.34E-01
2.7145,-2.51E-01
2.715,-2.59E-01
2.7155,-2.60E-01
2.716,-2.53E-01
2.7165,-2.42E-01
2.717,-2.27E-01
2.7175,-2.09E-01
2.718,-1.91E-01
2.7185,-1.72E-01
2.719,-1.54E-01
2.7195,-1.36E-01
2.72,-1.18E-01
2.7205,-1.01E-01
2.721,-8.43E-02
2.7215,-6.83E-02
2.722,-5.27E-02
2.7225,-3.75E-02
2.723,-2.25E-02
2.7235,-7.68E-03
2.724,7.01E-03
2.7245,2.16E-02
2.725,3.61E-02
2.7255,5.05E-02
2.726,6.46E-02
2.7265,7.82E-02
2.727,9.11E-02
2.7275,1.03E-01
2.728,1.13E-01
2.7285,1.22E-01
2.729,1.28E-01
2.7295,1.33E-01
2.73,1.35E-01
2.7305,1.35E-01
2.731,1.34E-01
2.7315,1.31E-01
2.732,1.27E-01
2.7325,1.22E-01
2.733,1.16E-01
2.7335,1.10E-01
2.734,1.05E-01
2.7345,9.87E-02
2.735,9.29E-02
2.7355,8.73E-02
2.736,8.19E-02
2.7365,7.68E-02
2.737,7.20E-02
2.7375,6.75E-02
2.738,6.33E-02
2.7385,5.94E-02
2.739,5.58E-02
2.7395,5.25E-02
2.74,4.94E-02
2.7405,4.66E-02
2.741,4.41E-02
2.7415,4.18E-02
2.742,3.97E-02
2.7425,3.78E-02
2.743,3.61E-02
2.7435,3.46E-02
2.744,3.33E-02
2.7445,3.21E-02
2.745,3.12E-02
2.7455,3.03E-02
2.746,2.96E-02
2.7465,2.90E-02
2.747,2.86E-02
2.7475,2.82E-02
2.748,2.80E-02
2.7485,2.79E-02
2.749,2.79E-02
2.7495,2.79E-02
2.75,2.81E-02
2.7505,2.84E-02
2.751,2.87E-02
2.7515,2.91E-02
2.752,2.96E-02
2.7525,3.02E-02
2.753,3.08E-02
2.7535,3.15E-02
2.754,3.22E-02
2.7545,3.30E-02
2.755,3.38E-02
2.7555,3.47E-02
2.756,3.56E-02
2.7565,3.65E-02
2.757,3.74E-02
2.7575,3.83E-02
2.758,3.92E-02
2.7585,4.00E-02
2.759,4.08E-02
2.7595,4.14E-02
2.76,4.19E-02
2.7605,4.22E-02
2.761,4.23E-02
2.7615,4.20E-02
2.762,4.14E-02
2.7625,4.02E-02
2.763,3.85E-02
2.7635,3.61E-02
2.764,3.28E-02
2.7645,2.85E-02
2.765,2.31E-02
2.7655,1.63E-02
2.766,8.22E-03
2.7665,-1.22E-03
2.767,-1.18E-02
2.7675,-2.29E-02
2.768,-3.39E-02
2.7685,-4.35E-02
2.769,-5.05E-02
2.7695,-5.34E-02
2.77,-5.12E-02
2.7705,-4.30E-02
2.771,-2.80E-02
2.7715,-5.42E-03
2.772,2.66E-02
2.7725,7.19E-02
2.773,1.38E-01
2.7735,2.42E-01
2.774,3.96E-01
2.7745,5.36E-01
2.775,5.34E-01
2.7755,4.46E-01
2.776,3.52E-01
2.7765,2.74E-01
2.777,2.14E-01
2.7775,1.67E-01
2.778,1.31E-01
2.7785,1.02E-01
2.779,7.83E-02
2.7795,5.87E-02
2.78,4.20E-02
2.7805,2.74E-02
2.781,1.41E-02
2.7815,1.57E-03
2.782,-1.07E-02
2.7825,-2.33E-02
2.783,-3.67E-02
2.7835,-5.15E-02
2.784,-6.84E-02
2.7845,-8.80E-02
2.785,-1.11E-01
2.7855,-1.37E-01
2.786,-1.66E-01
2.7865,-1.96E-01
2.787,-2.24E-01
2.7875,-2.46E-01
2.788,-2.61E-01
2.7885,-2.67E-01
2.789,-2.64E-01
2.7895,-2.55E-01
2.79,-2.42E-01
2.7905,-2.25E-01
2.791,-2.06E-01
2.7915,-1.87E-01
2.792,-1.67E-01
2.7925,-1.48E-01
2.793,-1.30E-01
2.7935,-1.12E-01
2.794,-9.48E-02
2.7945,-7.81E-02
2.795,-6.19E-02
2.7955,-4.61E-02
2.796,-3.07E-02
2.7965,-1.54E-02
2.797,-2.77E-04
2.7975,1.48E-02
2.798,2.97E-02
2.7985,4.46E-02
2.799,5.93E-02
2.7995,7.36E-02
2.8,8.72E-02
2.8005,9.99E-02
2.801,1.11E-01
2.8015,1.21E-01
2.802,1.29E-01
2.8025,1.34E-01
2.803,1.37E-01
2.8035,1.38E-01
2.804,1.37E-01
2.8045,1.35E-01
2.805,1.31E-01
2.8055,1.26E-01
2.806,1.20E-01
2.8065,1.15E-01
2.807,1.09E-01
2.8075,1.02E-01
2.808,9.65E-02
2.8085,9.06E-02
2.809,8.51E-02
2.8095,7.97E-02
2.81,7.47E-02
2.8105,6.99E-02
2.811,6.55E-02
2.8115,6.13E-02
2.812,5.74E-02
2.8125,5.39E-02
2.813,5.06E-02
2.8135,4.75E-02
2.814,4.47E-02
2.8145,4.22E-02
2.815,3.99E-02
2.8155,3.78E-02
2.816,3.59E-02
2.8165,3.42E-02
2.817,3.26E-02
2.8175,3.13E-02
2.818,3.01E-02
2.8185,2.90E-02
2.819,2.81E-02
2.8195,2.73E-02
2.82,2.67E-02
2.8205,2.61E-02
2.821,2.57E-02
2.8215,2.54E-02
2.822,2.52E-02
2.8225,2.51E-02
2.823,2.50E-02
2.8235,2.51E-02
2.824,2.52E-02
2.8245,2.55E-02
2.825,2.58E-02
2.8255,2.61E-02
2.826,2.66E-02
2.8265,2.71E-02
2.827,2.77E-02
2.8275,2.83E-02
2.828,2.90E-02
2.8285,2.97E-02
2.829,3.05E-02
2.8295,3.14E-02
2.83,3.23E-02
2.8305,3.32E-02
2.831,3.42E-02
2.8315,3.52E-02
2.832,3.62E-02
2.8325,3.72E-02
2.833,3.83E-02
2.8335,3.93E-02
2.834,4.04E-02
2.8345,4.14E-02
2.835,4.23E-02
2.8355,4.32E-02
2.836,4.39E-02
2.8365,4.46E-02
2.837,4.50E-02
2.8375,4.52E-02
2.838,4.51E-02
2.8385,4.46E-02
2.839,4.37E-02
2.8395,4.22E-02
2.84,4.00E-02
2.8405,3.70E-02
2.841,3.30E-02
2.8415,2.78E-02
2.842,2.13E-02
2.8425,1.34E-02
2.843,3.97E-03
2.8435,-6.76E-03
2.844,-1.84E-02
2.8445,-3.03E-02
2.845,-4.14E-02
2.8455,-5.03E-02
2.846,-5.55E-02
2.8465,-5.57E-02
2.847,-4.99E-02
2.8475,-3.75E-02
2.848,-1.77E-02
2.8485,1.10E-02
2.849,5.13E-02
2.8495,1.10E-01
2.85,1.99E-01
2.8505,3.40E-01
2.851,5.08E-01
2.8515,5.58E-01
2.852,4.82E-01
2.8525,3.84E-01
2.853,2.99E-01
2.8535,2.33E-01
2.854,1.82E-01
2.8545,1.42E-01
2.855,1.11E-01
2.8555,8.57E-02
2.856,6.50E-02
2.8565,4.75E-02
2.857,3.24E-02
2.8575,1.90E-02
2.858,6.58E-03
2.8585,-5.24E-03
2.859,-1.70E-02
2.8595,-2.91E-02
2.86,-4.22E-02
2.8605,-5.66E-02
2.861,-7.30E-02
2.8615,-9.19E-02
2.862,-1.14E-01
2.8625,-1.39E-01
2.863,-1.66E-01
2.8635,-1.94E-01
2.864,-2.20E-01
2.8645,-2.41E-01
2.865,-2.55E-01
2.8655,-2.60E-01
2.866,-2.58E-01
2.8665,-2.50E-01
2.867,-2.37E-01
2.8675,-2.21E-01
2.868,-2.04E-01
2.8685,-1.85E-01
2.869,-1.66E-01
2.8695,-1.48E-01
2.87,-1.30E-01
2.8705,-1.12E-01
2.871,-9.53E-02
2.8715,-7.89E-02
2.872,-6.31E-02
2.8725,-4.76E-02
2.873,-3.24E-02
2.8735,-1.75E-02
2.874,-2.75E-03
2.8745,1.19E-02
2.875,2.65E-02
2.8755,4.10E-02
2.876,5.53E-02
2.8765,6.92E-02
2.877,8.26E-02
2.8775,9.52E-02
2.878,1.07E-01
2.8785,1.16E-01
2.879,1.24E-01
2.8795,1.30E-01
2.88,1.34E-01
2.8805,1.35E-01
2.881,1.35E-01
2.8815,1.33E-01
2.882,1.30E-01
2.8825,1.25E-01
2.883,1.20E-01
2.8835,1.14E-01
2.884,1.09E-01
2.8845,1.03E-01
2.885,9.67E-02
2.8855,9.10E-02
2.886,8.54E-02
2.8865,8.02E-02
2.887,7.52E-02
2.8875,7.05E-02
2.888,6.61E-02
2.8885,6.20E-02
2.889,5.82E-02
2.8895,5.47E-02
2.89,5.14E-02
2.8905,4.85E-02
2.891,4.58E-02
2.8915,4.33E-02
2.892,4.10E-02
2.8925,3.90E-02
2.893,3.72E-02
2.8935,3.56E-02
2.894,3.41E-02
2.8945,3.29E-02
2.895,3.18E-02
2.8955,3.08E-02
2.896,3.00E-02
2.8965,2.94E-02
2.897,2.88E-02
2.8975,2.84E-02
2.898,2.81E-02
2.8985,2.79E-02
2.899,2.78E-02
2.8995,2.78E-02
2.9,2.79E-02
2.9005,2.81E-02
2.901,2.84E-02
2.9015,2.88E-02
2.902,2.92E-02
2.9025,2.97E-02
2.903,3.03E-02
2.9035,3.10E-02
2.904,3.17E-02
2.9045,3.24E-02
2.905,3.32E-02
2.9055,3.41E-02
2.906,3.49E-02
2.9065,3.58E-02
2.907,3.68E-02
2.9075,3.77E-02
2.908,3.86E-02
2.9085,3.94E-02
2.909,4.02E-02
2.9095,4.10E-02
2.91,4.16E-02
2.9105,4.20E-02
2.911,4.23E-02
2.9115,4.23E-02
2.912,4.19E-02
2.9125,4.12E-02
2.913,3.99E-02
2.9135,3.81E-02
2.914,3.54E-02
2.9145,3.19E-02
2.915,2.74E-02
2.9155,2.16E-02
2.916,1.45E-02
2.9165,6.08E-03
2.917,-3.65E-03
2.9175,-1.44E-02
2.918,-2.56E-02
2.9185,-3.64E-02
2.919,-4.55E-02
2.9195,-5.16E-02
2.92,-5.35E-02
2.9205,-4.99E-02
2.921,-4.01E-02
2.9215,-2.34E-02
2.922,1.32E-03
2.9225,3.61E-02
2.923,8.55E-02
2.9235,1.59E-01
2.924,2.74E-01
2.9245,4.38E-01
2.925,5.50E-01
2.9255,5.16E-01
2.926,4.22E-01
2.9265,3.31E-01
2.927,2.58E-01
2.9275,2.02E-01
2.928,1.58E-01
2.9285,1.23E-01
2.929,9.57E-02
2.9295,7.33E-02
2.93,5.45E-02
2.9305,3.83E-02
2.931,2.41E-02
2.9315,1.10E-02
2.932,-1.39E-03
2.9325,-1.37E-02
2.933,-2.64E-02
2.9335,-4.01E-02
2.934,-5.53E-02
2.9345,-7.28E-02
2.935,-9.30E-02
2.9355,-1.17E-01
2.936,-1.43E-01
2.9365,-1.73E-01
2.937,-2.03E-01
2.9375,-2.30E-01
2.938,-2.51E-01
2.9385,-2.63E-01
2.939,-2.67E-01
2.9395,-2.63E-01
2.94,-2.52E-01
2.9405,-2.38E-01
2.941,-2.20E-01
2.9415,-2.02E-01
2.942,-1.82E-01
2.9425,-1.63E-01
2.943,-1.44E-01
2.9435,-1.26E-01
2.944,-1.08E-01
2.9445,-9.08E-02
2.945,-7.43E-02
2.9455,-5.82E-02
2.946,-4.25E-02
2.9465,-2.71E-02
2.947,-1.19E-02
2.9475,3.20E-03
2.948,1.82E-02
2.9485,3.32E-02
2.949,4.80E-02
2.9495,6.26E-02
2.95,7.68E-02
2.9505,9.02E-02
2.951,1.03E-01
2.9515,1.14E-01
2.952,1.23E-01
2.9525,1.30E-01
2.953,1.35E-01
2.9535,1.38E-01
2.954,1.38E-01
2.9545,1.37E-01
2.955,1.34E-01
2.9555,1.30E-01
2.956,1.25E-01
2.9565,1.19E-01
2.957,1.13E-01
2.9575,1.07E-01
2.958,1.01E-01
2.9585,9.51E-02
2.959,8.93E-02
2.9595,8.38E-02
2.96,7.85E-02
2.9605,7.35E-02
2.961,6.89E-02
2.9615,6.45E-02
2.962,6.04E-02
2.9625,5.66E-02
2.963,5.31E-02
2.9635,4.99E-02
2.964,4.69E-02
2.9645,4.41E-02
2.965,4.17E-02
2.9655,3.94E-02
2.966,3.73E-02
2.9665,3.55E-02
2.967,3.38E-02
2.9675,3.23E-02
2.968,3.10E-02
2.9685,2.98E-02
2.969,2.88E-02
2.9695,2.79E-02
2.97,2.72E-02
2.9705,2.66E-02
2.971,2.61E-02
2.9715,2.57E-02
2.972,2.54E-02
2.9725,2.52E-02
2.973,2.51E-02
2.9735,2.51E-02
2.974,2.52E-02
2.9745,2.53E-02
2.975,2.56E-02
2.9755,2.59E-02
2.976,2.63E-02
2.9765,2.67E-02
2.977,2.73E-02
2.9775,2.79E-02
2.978,2.85E-02
2.9785,2.92E-02
2.979,3.00E-02
2.9795,3.08E-02
2.98,3.16E-02
2.9805,3.25E-02
2.981,3.35E-02
2.9815,3.45E-02
2.982,3.55E-02
2.9825,3.65E-02
2.983,3.75E-02
2.9835,3.86E-02
2.984,3.96E-02
2.9845,4.07E-02
2.985,4.16E-02
2.9855,4.26E-02
2.986,4.34E-02
2.9865,4.41E-02
2.987,4.47E-02
2.9875,4.51E-02
2.988,4.52E-02
2.9885,4.50E-02
2.989,4.44E-02
2.9895,4.33E-02
2.99,4.16E-02
2.9905,3.91E-02
2.991,3.58E-02
2.9915,3.14E-02
2.992,2.58E-02
2.9925,1.89E-02
2.993,1.05E-02
2.9935,6.47E-04
2.994,-1.04E-02
2.9945,-2.23E-02
2.995,-3.40E-02
2.9955,-4.46E-02
2.996,-5.24E-02
2.9965,-5.61E-02
2.997,-5.45E-02
2.9975,-4.67E-02
2.998,-3.20E-02
2.9985,-9.48E-03
2.999,2.25E-02
2.9995,6.76E-02
3,1.34E-01
3.0005,2.38E-01
3.001,3.97E-01
3.0015,5.43E-01
3.002,5.41E-01
3.0025,4.50E-01
3.003,3.54E-01
3.0035,2.76E-01
3.004,2.15E-01
3.0045,1.68E-01
3.005,1.31E-01
3.0055,1.02E-01
3.006,7.87E-02
3.0065,5.91E-02
3.007,4.25E-02
3.0075,2.80E-02
3.008,1.49E-02
3.0085,2.74E-03
3.009,-9.01E-03
3.0095,-2.08E-02
3.01,-3.32E-02
3.0105,-4.67E-02
3.011,-6.17E-02
3.0115,-7.89E-02
3.012,-9.87E-02
3.0125,-1.22E-01
3.013,-1.47E-01
3.0135,-1.75E-01
3.014,-2.03E-01
3.0145,-2.27E-01
3.015,-2.46E-01
3.0155,-2.57E-01
3.016,-2.60E-01
3.0165,-2.56E-01
3.017,-2.46E-01
3.0175,-2.32E-01
3.018,-2.16E-01
3.0185,-1.98E-01
3.019,-1.79E-01
3.0195,-1.60E-01
3.02,-1.42E-01
3.0205,-1.24E-01
3.021,-1.07E-01
3.0215,-8.98E-02
3.022,-7.36E-02
3.0225,-5.79E-02
3.023,-4.26E-02
3.0235,-2.75E-02
3.024,-1.26E-02
3.0245,2.12E-03
3.025,1.68E-02
3.0255,3.13E-02
3.026,4.58E-02
3.0265,6.00E-02
3.027,7.38E-02
3.0275,8.69E-02
3.028,9.91E-02
3.0285,1.10E-01
3.029,1.19E-01
3.0295,1.27E-01
3.03,1.32E-01
3.0305,1.35E-01
3.031,1.36E-01
3.0315,1.35E-01
3.032,1.32E-01
3.0325,1.28E-01
3.033,1.24E-01
3.0335,1.18E-01
3.034,1.12E-01
3.0345,1.07E-01
3.035,1.01E-01
3.0355,9.48E-02
3.036,8.91E-02
3.0365,8.37E-02
3.037,7.85E-02
3.0375,7.36E-02
3.038,6.90E-02
3.0385,6.47E-02
3.039,6.07E-02
3.0395,5.70E-02
3.04,5.36E-02
3.0405,5.04E-02
3.041,4.75E-02
3.0415,4.49E-02
3.042,4.25E-02
3.0425,4.03E-02
3.043,3.84E-02
3.0435,3.66E-02
3.044,3.51E-02
3.0445,3.37E-02
3.045,3.25E-02
3.0455,3.14E-02
3.046,3.05E-02
3.0465,2.98E-02
3.047,2.91E-02
3.0475,2.86E-02
3.048,2.83E-02
3.0485,2.80E-02
3.049,2.78E-02
3.0495,2.78E-02
3.05,2.78E-02
3.0505,2.80E-02
3.051,2.82E-02
3.0515,2.85E-02
3.052,2.89E-02
3.0525,2.93E-02
3.053,2.99E-02
3.0535,3.05E-02
3.054,3.11E-02
3.0545,3.19E-02
3.055,3.26E-02
3.0555,3.34E-02
3.056,3.43E-02
3.0565,3.52E-02
3.057,3.61E-02
3.0575,3.70E-02
3.058,3.79E-02
3.0585,3.88E-02
3.059,3.97E-02
3.0595,4.05E-02
3.06,4.12E-02
3.0605,4.17E-02
3.061,4.22E-02
3.0615,4.23E-02
3.062,4.23E-02
3.0625,4.18E-02
3.063,4.10E-02
3.0635,3.96E-02
3.064,3.75E-02
3.0645,3.47E-02
3.065,3.09E-02
3.0655,2.61E-02
3.066,2.00E-02
3.0665,1.26E-02
3.067,3.84E-03
3.0675,-6.19E-03
3.068,-1.71E-02
3.0685,-2.83E-02
3.069,-3.88E-02
3.0695,-4.74E-02
3.07,-5.26E-02
3.0705,-5.31E-02
3.071,-4.81E-02
3.0715,-3.67E-02
3.072,-1.81E-02
3.0725,8.77E-03
3.073,4.66E-02
3.0735,1.01E-01
3.074,1.83E-01
3.0745,3.11E-01
3.075,4.77E-01
3.0755,5.54E-01
3.076,4.95E-01
3.0765,3.98E-01
3.077,3.12E-01
3.0775,2.43E-01
3.078,1.90E-01
3.0785,1.48E-01
3.079,1.16E-01
3.0795,8.98E-02
3.08,6.83E-02
3.0805,5.03E-02
3.081,3.47E-02
3.0815,2.08E-02
3.082,7.94E-03
3.0825,-4.39E-03
3.083,-1.67E-02
3.0835,-2.96E-02
3.084,-4.36E-02
3.0845,-5.93E-02
3.085,-7.74E-02
3.0855,-9.84E-02
3.086,-1.23E-01
3.0865,-1.50E-01
3.087,-1.80E-01
3.0875,-2.09E-01
3.088,-2.35E-01
3.0885,-2.54E-01
3.089,-2.65E-01
3.0895,-2.67E-01
3.09,-2.61E-01
3.0905,-2.49E-01
3.091,-2.34E-01
3.0915,-2.16E-01
3.092,-1.97E-01
3.0925,-1.78E-01
3.093,-1.58E-01
3.0935,-1.40E-01
3.094,-1.21E-01
3.0945,-1.04E-01
3.095,-8.69E-02
3.0955,-7.04E-02
3.096,-5.45E-02
3.0965,-3.88E-02
3.097,-2.35E-02
3.0975,-8.33E-03
3.098,6.74E-03
3.0985,2.17E-02
3.099,3.67E-02
3.0995,5.14E-02
3.1,6.60E-02
3.1005,8.00E-02
3.101,9.32E-02
3.1015,1.05E-01
3.102,1.16E-01
3.1025,1.25E-01
3.103,1.31E-01
3.1035,1.36E-01
3.104,1.38E-01
3.1045,1.38E-01
3.105,1.36E-01
3.1055,1.33E-01
3.106,1.28E-01
3.1065,1.23E-01
3.107,1.18E-01
3.1075,1.12E-01
3.108,1.06E-01
3.1085,9.96E-02
3.109,9.37E-02
3.1095,8.80E-02
3.11,8.25E-02
3.1105,7.73E-02
3.111,7.24E-02
3.1115,6.78E-02
3.112,6.35E-02
3.1125,5.95E-02
3.113,5.58E-02
3.1135,5.23E-02
3.114,4.91E-02
3.1145,4.62E-02
3.115,4.35E-02
3.1155,4.11E-02
3.116,3.89E-02
3.1165,3.69E-02
3.117,3.51E-02
3.1175,3.35E-02
3.118,3.20E-02
3.1185,3.07E-02
3.119,2.96E-02
3.1195,2.86E-02
3.12,2.78E-02
3.1205,2.70E-02
3.121,2.65E-02
3.1215,2.60E-02
3.122,2.56E-02
3.1225,2.54E-02
3.123,2.52E-02
3.1235,2.51E-02
3.124,2.51E-02
3.1245,2.52E-02
3.125,2.54E-02
3.1255,2.57E-02
3.126,2.60E-02
3.1265,2.64E-02
3.127,2.69E-02
3.1275,2.74E-02
3.128,2.81E-02
3.1285,2.87E-02
3.129,2.94E-02
3.1295,3.02E-02
3.13,3.10E-02
3.1305,3.19E-02
3.131,3.28E-02
3.1315,3.38E-02
3.132,3.48E-02
3.1325,3.58E-02
3.133,3.68E-02
3.1335,3.78E-02
3.134,3.89E-02
3.1345,3.99E-02
3.135,4.09E-02
3.1355,4.19E-02
3.136,4.28E-02
3.1365,4.36E-02
3.137,4.43E-02
3.1375,4.48E-02
3.138,4.51E-02
3.1385,4.51E-02
3.139,4.48E-02
3.1395,4.40E-02
3.14,4.28E-02
3.1405,4.08E-02
3.141,3.81E-02
3.1415,3.45E-02
3.142,2.97E-02
3.1425,2.37E-02
3.143,1.63E-02
3.1435,7.48E-03
3.144,-2.77E-03
3.1445,-1.42E-02
3.145,-2.61E-02
3.1455,-3.76E-02
3.146,-4.74E-02
3.1465,-5.40E-02
3.147,-5.62E-02
3.1475,-5.27E-02
3.148,-4.27E-02
3.1485,-2.57E-02
3.149,-4.19E-04
3.1495,3.52E-02
3.15,8.59E-02
3.1505,1.62E-01
3.151,2.83E-01
3.1515,4.52E-01
3.152,5.60E-01
3.1525,5.16E-01
3.153,4.18E-01
3.1535,3.27E-01
3.154,2.55E-01
3.1545,1.99E-01
3.155,1.55E-01
3.1555,1.21E-01
3.156,9.42E-02
3.1565,7.21E-02
3.157,5.35E-02
3.1575,3.76E-02
3.158,2.37E-02
3.1585,1.09E-02
3.159,-1.04E-03
3.1595,-1.28E-02
3.16,-2.47E-02
3.1605,-3.74E-02
3.161,-5.13E-02
3.1615,-6.70E-02
3.162,-8.50E-02
3.1625,-1.06E-01
3.163,-1.30E-01
3.1635,-1.56E-01
3.164,-1.84E-01
3.1645,-2.11E-01
3.165,-2.34E-01
3.1655,-2.51E-01
3.166,-2.59E-01
3.1665,-2.60E-01
3.167,-2.54E-01
3.1675,-2.42E-01
3.168,-2.27E-01
3.1685,-2.10E-01
3.169,-1.91E-01
3.1695,-1.73E-01
3.17,-1.54E-01
3.1705,-1.36E-01
3.171,-1.18E-01
3.1715,-1.01E-01
3.172,-8.45E-02
3.1725,-6.85E-02
3.173,-5.29E-02
3.1735,-3.76E-02
3.174,-2.26E-02
3.1745,-7.77E-03
3.175,6.93E-03
3.1755,2.16E-02
3.176,3.61E-02
3.1765,5.05E-02
3.177,6.46E-02
3.1775,7.82E-02
3.178,9.11E-02
3.1785,1.03E-01
3.179,1.13E-01
3.1795,1.22E-01
3.18,1.29E-01
3.1805,1.33E-01
3.181,1.35E-01
3.1815,1.35E-01
3.182,1.34E-01
3.1825,1.31E-01
3.183,1.27E-01
3.1835,1.22E-01
3.184,1.16E-01
3.1845,1.11E-01
3.185,1.05E-01
3.1855,9.87E-02
3.186,9.29E-02
3.1865,8.73E-02
3.187,8.19E-02
3.1875,7.68E-02
3.188,7.20E-02
3.1885,6.75E-02
3.189,6.33E-02
3.1895,5.94E-02
3.19,5.58E-02
3.1905,5.25E-02
3.191,4.94E-02
3.1915,4.66E-02
3.192,4.41E-02
3.1925,4.18E-02
3.193,3.97E-02
3.1935,3.78E-02
3.194,3.61E-02
3.1945,3.46E-02
3.195,3.33E-02
3.1955,3.21E-02
3.196,3.11E-02
3.1965,3.02E-02
3.197,2.95E-02
3.1975,2.89E-02
3.198,2.85E-02
3.1985,2.81E-02
3.199,2.79E-02
3.1995,2.78E-02
3.2,2.78E-02
3.2005,2.78E-02
3.201,2.80E-02
3.2015,2.82E-02
3.202,2.86E-02
3.2025,2.90E-02
3.203,2.95E-02
3.2035,3.00E-02
3.204,3.06E-02
3.2045,3.13E-02
3.205,3.21E-02
3.2055,3.28E-02
3.206,3.37E-02
3.2065,3.45E-02
3.207,3.54E-02
3.2075,3.63E-02
3.208,3.73E-02
3.2085,3.82E-02
3.209,3.91E-02
3.2095,3.99E-02
3.21,4.07E-02
3.2105,4.14E-02
3.211,4.19E-02
3.2115,4.23E-02
3.212,4.24E-02
3.2125,4.22E-02
3.213,4.17E-02
3.2135,4.07E-02
3.214,3.92E-02
3.2145,3.70E-02
3.215,3.39E-02
3.2155,2.99E-02
3.216,2.47E-02
3.2165,1.83E-02
3.217,1.06E-02
3.2175,1.48E-03
3.218,-8.82E-03
3.2185,-1.99E-02
3.219,-3.11E-02
3.2195,-4.12E-02
3.22,-4.90E-02
3.2205,-5.32E-02
3.221,-5.25E-02
3.2215,-4.59E-02
3.222,-3.28E-02
3.2225,-1.23E-02
3.223,1.70E-02
3.2235,5.82E-02
3.224,1.18E-01
3.2245,2.10E-01
3.225,3.51E-01
3.2255,5.10E-01
3.226,5.48E-01
3.2265,4.72E-01
3.227,3.75E-01
3.2275,2.93E-01
3.228,2.28E-01
3.2285,1.79E-01
3.229,1.40E-01
3.2295,1.09E-01
3.23,8.41E-02
3.2305,6.36E-02
3.231,4.62E-02
3.2315,3.11E-02
3.232,1.75E-02
3.2325,4.86E-03
3.233,-7.42E-03
3.2335,-1.98E-02
3.234,-3.29E-02
3.2345,-4.73E-02
3.235,-6.35E-02
3.2355,-8.22E-02
3.236,-1.04E-01
3.2365,-1.29E-01
3.237,-1.57E-01
3.2375,-1.87E-01
3.238,-2.16E-01
3.2385,-2.40E-01
3.239,-2.58E-01
3.2395,-2.66E-01
3.24,-2.66E-01
3.2405,-2.58E-01
3.241,-2.46E-01
3.2415,-2.30E-01
3.242,-2.11E-01
3.2425,-1.92E-01
3.243,-1.73E-01
3.2435,-1.54E-01
3.244,-1.35E-01
3.2445,-1.17E-01
3.245,-9.97E-02
3.2455,-8.29E-02
3.246,-6.66E-02
3.2465,-5.07E-02
3.247,-3.51E-02
3.2475,-1.99E-02
3.248,-4.72E-03
3.2485,1.03E-02
3.249,2.53E-02
3.2495,4.02E-02
3.25,5.49E-02
3.2505,6.93E-02
3.251,8.32E-02
3.2515,9.62E-02
3.252,1.08E-01
3.2525,1.18E-01
3.253,1.26E-01
3.2535,1.33E-01
3.254,1.36E-01
3.2545,1.38E-01
3.255,1.38E-01
3.2555,1.35E-01
3.256,1.32E-01
3.2565,1.27E-01
3.257,1.22E-01
3.2575,1.16E-01
3.258,1.10E-01
3.2585,1.04E-01
3.259,9.82E-02
3.2595,9.23E-02
3.26,8.67E-02
3.2605,8.12E-02
3.261,7.61E-02
3.2615,7.13E-02
3.262,6.67E-02
3.2625,6.25E-02
3.263,5.86E-02
3.2635,5.49E-02
3.264,5.15E-02
3.2645,4.84E-02
3.265,4.56E-02
3.2655,4.30E-02
3.266,4.06E-02
3.2665,3.84E-02
3.267,3.65E-02
3.2675,3.47E-02
3.268,3.31E-02
3.2685,3.17E-02
3.269,3.05E-02
3.2695,2.94E-02
3.27,2.84E-02
3.2705,2.76E-02
3.271,2.69E-02
3.2715,2.64E-02
3.272,2.59E-02
3.2725,2.56E-02
3.273,2.53E-02
3.2735,2.52E-02
3.274,2.51E-02
3.2745,2.52E-02
3.275,2.53E-02
3.2755,2.55E-02
3.276,2.58E-02
3.2765,2.62E-02
3.277,2.66E-02
3.2775,2.71E-02
3.278,2.76E-02
3.2785,2.83E-02
3.279,2.89E-02
3.2795,2.97E-02
3.28,3.05E-02
3.2805,3.13E-02
3.281,3.22E-02
3.2815,3.31E-02
3.282,3.41E-02
3.2825,3.51E-02
3.283,3.61E-02
3.2835,3.71E-02
3.284,3.82E-02
3.2845,3.92E-02
3.285,4.02E-02
3.2855,4.12E-02
3.286,4.22E-02
3.2865,4.30E-02
3.287,4.38E-02
3.2875,4.44E-02
3.288,4.49E-02
3.2885,4.51E-02
3.289,4.50E-02
3.2895,4.46E-02
3.29,4.37E-02
3.2905,4.22E-02
3.291,4.00E-02
3.2915,3.70E-02
3.292,3.31E-02
3.2925,2.80E-02
3.293,2.15E-02
3.2935,1.37E-02
3.294,4.37E-03
3.2945,-6.29E-03
3.295,-1.79E-02
3.2955,-2.98E-02
3.296,-4.09E-02
3.2965,-4.99E-02
3.297,-5.52E-02
3.2975,-5.57E-02
3.298,-5.02E-02
3.2985,-3.81E-02
3.299,-1.86E-02
3.2995,9.61E-03
3.3,4.93E-02
3.3005,1.07E-01
3.301,1.94E-01
3.3015,3.33E-01
3.302,5.02E-01
3.3025,5.59E-01
3.303,4.87E-01
3.3035,3.88E-01
3.304,3.02E-01
3.3045,2.35E-01
3.305,1.84E-01
3.3055,1.44E-01
3.306,1.12E-01
3.3065,8.68E-02
3.307,6.58E-02
3.3075,4.82E-02
3.308,3.30E-02
3.3085,1.95E-02
3.309,7.09E-03
3.3095,-4.77E-03
3.31,-1.65E-02
3.3105,-2.87E-02
3.311,-4.17E-02
3.3115,-5.61E-02
3.312,-7.25E-02
3.3125,-9.14E-02
3.313,-1.13E-01
3.3135,-1.38E-01
3.314,-1.65E-01
3.3145,-1.93E-01
3.315,-2.19E-01
3.3155,-2.41E-01
3.316,-2.55E-01
3.3165,-2.60E-01
3.317,-2.59E-01
3.3175,-2.50E-01
3.318,-2.38E-01
3.3185,-2.22E-01
3.319,-2.04E-01
3.3195,-1.85E-01
3.32,-1.67E-01
3.3205,-1.48E-01
3.321,-1.30E-01
3.3215,-1.13E-01
3.322,-9.56E-02
3.3225,-7.92E-02
3.323,-6.33E-02
3.3235,-4.79E-02
3.324,-3.27E-02
3.3245,-1.78E-02
3.325,-2.97E-03
3.3255,1.17E-02
3.326,2.63E-02
3.3265,4.08E-02
3.327,5.51E-02
3.3275,6.91E-02
3.328,8.25E-02
3.3285,9.51E-02
3.329,1.07E-01
3.3295,1.16E-01
3.33,1.24E-01
3.3305,1.30E-01
3.331,1.34E-01
3.3315,1.36E-01
3.332,1.35E-01
3.3325,1.33E-01
3.333,1.30E-01
3.3335,1.25E-01
3.334,1.20E-01
3.3345,1.15E-01
3.335,1.09E-01
3.3355,1.03E-01
3.336,9.68E-02
3.3365,9.11E-02
3.337,8.55E-02
3.3375,8.03E-02
3.338,7.53E-02
3.3385,7.05E-02
3.339,6.61E-02
3.3395,6.20E-02
3.34,5.82E-02
3.3405,5.47E-02
3.341,5.15E-02
3.3415,4.85E-02
3.342,4.58E-02
3.3425,4.33E-02
3.343,4.10E-02
3.3435,3.90E-02
3.344,3.72E-02
3.3445,3.56E-02
3.345,3.41E-02
3.3455,3.28E-02
3.346,3.17E-02
3.3465,3.08E-02
3.347,3.00E-02
3.3475,2.93E-02
3.348,2.88E-02
3.3485,2.83E-02
3.349,2.80E-02
3.3495,2.78E-02
3.35,2.77E-02
3.3505,2.77E-02
3.351,2.78E-02
3.3515,2.80E-02
3.352,2.83E-02
3.3525,2.87E-02
3.353,2.91E-02
3.3535,2.96E-02
3.354,3.02E-02
3.3545,3.08E-02
3.355,3.15E-02
3.3555,3.23E-02
3.356,3.31E-02
3.3565,3.39E-02
3.357,3.48E-02
3.3575,3.57E-02
3.358,3.66E-02
3.3585,3.75E-02
3.359,3.84E-02
3.3595,3.93E-02
3.36,4.01E-02
3.3605,4.09E-02
3.361,4.15E-02
3.3615,4.20E-02
3.362,4.24E-02
3.3625,4.24E-02
3.363,4.22E-02
3.3635,4.15E-02
3.364,4.04E-02
3.3645,3.87E-02
3.365,3.63E-02
3.3655,3.30E-02
3.366,2.87E-02
3.3665,2.33E-02
3.367,1.66E-02
3.3675,8.46E-03
3.368,-9.82E-04
3.3685,-1.15E-02
3.369,-2.27E-02
3.3695,-3.38E-02
3.37,-4.35E-02
3.3705,-5.05E-02
3.371,-5.36E-02
3.3715,-5.14E-02
3.372,-4.33E-02
3.3725,-2.84E-02
3.373,-5.94E-03
3.3735,2.60E-02
3.374,7.10E-02
3.3745,1.37E-01
3.375,2.40E-01
3.3755,3.94E-01
3.376,5.36E-01
3.3765,5.35E-01
3.377,4.47E-01
3.3775,3.53E-01
3.378,2.75E-01
3.3785,2.15E-01
3.379,1.68E-01
3.3795,1.31E-01
3.38,1.02E-01
3.3805,7.86E-02
3.381,5.90E-02
3.3815,4.22E-02
3.382,2.76E-02
3.3825,1.43E-02
3.383,1.77E-03
3.3835,-1.05E-02
3.384,-2.30E-02
3.3845,-3.64E-02
3.385,-5.11E-02
3.3855,-6.79E-02
3.386,-8.72E-02
3.3865,-1.10E-01
3.387,-1.36E-01
3.3875,-1.64E-01
3.388,-1.94E-01
3.3885,-2.22E-01
3.389,-2.45E-01
3.3895,-2.60E-01
3.39,-2.67E-01
3.3905,-2.64E-01
3.391,-2.56E-01
3.3915,-2.42E-01
3.392,-2.25E-01
3.3925,-2.07E-01
3.393,-1.88E-01
3.3935,-1.68E-01
3.394,-1.49E-01
3.3945,-1.31E-01
3.395,-1.13E-01
3.3955,-9.55E-02
3.396,-7.88E-02
3.3965,-6.27E-02
3.397,-4.69E-02
3.3975,-3.14E-02
3.398,-1.62E-02
3.3985,-1.07E-03
3.399,1.40E-02
3.3995,2.89E-02
3.4,4.38E-02
3.4005,5.84E-02
3.401,7.27E-02
3.4015,8.64E-02
3.402,9.92E-02
3.4025,1.11E-01
3.403,1.20E-01
3.4035,1.28E-01
3.404,1.34E-01
3.4045,1.37E-01
3.405,1.38E-01
3.4055,1.37E-01
3.406,1.35E-01
3.4065,1.31E-01
3.407,1.26E-01
3.4075,1.21E-01
3.408,1.15E-01
3.4085,1.09E-01
3.409,1.03E-01
3.4095,9.67E-02
3.41,9.09E-02
3.4105,8.53E-02
3.411,8.00E-02
3.4115,7.49E-02
3.412,7.02E-02
3.4125,6.57E-02
3.413,6.15E-02
3.4135,5.77E-02
3.414,5.41E-02
3.4145,5.08E-02
3.415,4.77E-02
3.4155,4.49E-02
3.416,4.24E-02
3.4165,4.00E-02
3.417,3.79E-02
3.4175,3.60E-02
3.418,3.43E-02
3.4185,3.28E-02
3.419,3.14E-02
3.4195,3.02E-02
3.42,2.91E-02
3.4205,2.82E-02
3.421,2.74E-02
3.4215,2.68E-02
3.422,2.63E-02
3.4225,2.58E-02
3.423,2.55E-02
3.4235,2.53E-02
3.424,2.52E-02
3.4245,2.52E-02
3.425,2.52E-02
3.4255,2.54E-02
3.426,2.56E-02
3.4265,2.59E-02
3.427,2.63E-02
3.4275,2.67E-02
3.428,2.72E-02
3.4285,2.78E-02
3.429,2.85E-02
3.4295,2.92E-02
3.43,2.99E-02
3.4305,3.07E-02
3.431,3.16E-02
3.4315,3.24E-02
3.432,3.34E-02
3.4325,3.44E-02
3.433,3.54E-02
3.4335,3.64E-02
3.434,3.74E-02
3.4345,3.85E-02
3.435,3.95E-02
3.4355,4.05E-02
3.436,4.15E-02
3.4365,4.24E-02
3.437,4.33E-02
3.4375,4.40E-02
3.438,4.46E-02
3.4385,4.50E-02
3.439,4.51E-02
3.4395,4.49E-02
3.44,4.43E-02
3.4405,4.32E-02
3.441,4.16E-02
3.4415,3.92E-02
3.442,3.59E-02
3.4425,3.16E-02
3.443,2.61E-02
3.4435,1.92E-02
3.444,1.09E-02
3.4445,1.14E-03
3.445,-9.87E-03
3.4455,-2.17E-02
3.446,-3.34E-02
3.4465,-4.40E-02
3.447,-5.20E-02
3.4475,-5.59E-02
3.448,-5.46E-02
3.4485,-4.71E-02
3.449,-3.28E-02
3.4495,-1.07E-02
3.45,2.07E-02
3.4505,6.50E-02
3.451,1.30E-01
3.4515,2.32E-01
3.452,3.87E-01
3.4525,5.39E-01
3.453,5.45E-01
3.4535,4.55E-01
3.454,3.59E-01
3.4545,2.79E-01
3.455,2.18E-01
3.4555,1.70E-01
3.456,1.33E-01
3.4565,1.04E-01
3.457,7.98E-02
3.4575,6.00E-02
3.458,4.32E-02
3.4585,2.86E-02
3.459,1.55E-02
3.4595,3.31E-03
3.46,-8.47E-03
3.4605,-2.03E-02
3.461,-3.27E-02
3.4615,-4.61E-02
3.462,-6.11E-02
3.4625,-7.82E-02
3.463,-9.80E-02
3.4635,-1.21E-01
3.464,-1.47E-01
3.4645,-1.74E-01
3.465,-2.02E-01
3.4655,-2.27E-01
3.466,-2.46E-01
3.4665,-2.57E-01
3.467,-2.61E-01
3.4675,-2.57E-01
3.468,-2.47E-01
3.4685,-2.33E-01
3.469,-2.16E-01
3.4695,-1.98E-01
3.47,-1.79E-01
3.4705,-1.61E-01
3.471,-1.42E-01
3.4715,-1.24E-01
3.472,-1.07E-01
3.4725,-9.03E-02
3.473,-7.41E-02
3.4735,-5.83E-02
3.474,-4.29E-02
3.4745,-2.79E-02
3.475,-1.30E-02
3.4755,1.78E-03
3.476,1.64E-02
3.4765,3.10E-02
3.477,4.55E-02
3.4775,5.97E-02
3.478,7.35E-02
3.4785,8.67E-02
3.479,9.90E-02
3.4795,1.10E-01
3.48,1.19E-01
3.4805,1.27E-01
3.481,1.32E-01
3.4815,1.35E-01
3.482,1.36E-01
3.4825,1.35E-01
3.483,1.32E-01
3.4835,1.28E-01
3.484,1.24E-01
3.4845,1.18E-01
3.485,1.13E-01
3.4855,1.07E-01
3.486,1.01E-01
3.4865,9.49E-02
3.487,8.93E-02
3.4875,8.38E-02
3.488,7.86E-02
3.4885,7.37E-02
3.489,6.91E-02
3.4895,6.48E-02
3.49,6.08E-02
3.4905,5.71E-02
3.491,5.36E-02
3.4915,5.05E-02
3.492,4.76E-02
3.4925,4.49E-02
3.493,4.25E-02
3.4935,4.04E-02
3.494,3.84E-02
3.4945,3.66E-02
3.495,3.51E-02
3.4955,3.37E-02
3.496,3.25E-02
3.4965,3.14E-02
3.497,3.05E-02
3.4975,2.97E-02
3.498,2.91E-02
3.4985,2.86E-02
3.499,2.82E-02
3.4995,2.79E-02
3.5,2.78E-02
3.5005,2.77E-02
3.501,2.77E-02
3.5015,2.79E-02
3.502,2.81E-02
3.5025,2.84E-02
3.503,2.88E-02
3.5035,2.92E-02
3.504,2.97E-02
3.5045,3.03E-02
3.505,3.10E-02
3.5055,3.17E-02
3.506,3.25E-02
3.5065,3.33E-02
3.507,3.41E-02
3.5075,3.50E-02
3.508,3.59E-02
3.5085,3.69E-02
3.509,3.78E-02
3.5095,3.87E-02
3.51,3.96E-02
3.5105,4.04E-02
3.511,4.11E-02
3.5115,4.17E-02
3.512,4.22E-02
3.5125,4.24E-02
3.513,4.24E-02
3.5135,4.21E-02
3.514,4.13E-02
3.5145,4.01E-02
3.515,3.82E-02
3.5155,3.56E-02
3.516,3.21E-02
3.5165,2.75E-02
3.517,2.17E-02
3.5175,1.47E-02
3.518,6.21E-03
3.5185,-3.55E-03
3.519,-1.43E-02
3.5195,-2.56E-02
3.52,-3.64E-02
3.5205,-4.56E-02
3.521,-5.17E-02
3.5215,-5.36E-02
3.522,-5.00E-02
3.5225,-4.02E-02
3.523,-2.35E-02
3.5235,1.13E-03
3.524,3.59E-02
3.5245,8.53E-02
3.525,1.59E-01
3.5255,2.74E-01
3.526,4.38E-01
3.5265,5.50E-01
3.527,5.17E-01
3.5275,4.22E-01
3.528,3.31E-01
3.5285,2.58E-01
3.529,2.02E-01
3.5295,1.58E-01
3.53,1.23E-01
3.5305,9.58E-02
3.531,7.33E-02
3.5315,5.45E-02
3.532,3.84E-02
3.5325,2.41E-02
3.533,1.11E-02
3.5335,-1.33E-03
3.534,-1.36E-02
3.5345,-2.63E-02
3.535,-3.99E-02
3.5355,-5.51E-02
3.536,-7.24E-02
3.5365,-9.26E-02
3.537,-1.16E-01
3.5375,-1.43E-01
3.538,-1.72E-01
3.5385,-2.02E-01
3.539,-2.29E-01
3.5395,-2.50E-01
3.54,-2.63E-01
3.5405,-2.67E-01
3.541,-2.63E-01
3.5415,-2.53E-01
3.542,-2.38E-01
3.5425,-2.21E-01
3.543,-2.02E-01
3.5435,-1.83E-01
3.544,-1.64E-01
3.5445,-1.45E-01
3.545,-1.26E-01
3.5455,-1.08E-01
3.546,-9.14E-02
3.5465,-7.48E-02
3.547,-5.87E-02
3.5475,-4.31E-02
3.548,-2.77E-02
3.5485,-1.25E-02
3.549,2.62E-03
3.5495,1.76E-02
3.55,3.26E-02
3.5505,4.74E-02
3.551,6.20E-02
3.5515,7.61E-02
3.552,8.96E-02
3.5525,1.02E-01
3.553,1.13E-01
3.5535,1.22E-01
3.554,1.30E-01
3.5545,1.35E-01
3.555,1.37E-01
3.5555,1.38E-01
3.556,1.37E-01
3.5565,1.34E-01
3.557,1.30E-01
3.5575,1.25E-01
3.558,1.19E-01
3.5585,1.13E-01
3.559,1.07E-01
3.5595,1.01E-01
3.56,9.53E-02
3.5605,8.95E-02
3.561,8.40E-02
3.5615,7.87E-02
3.562,7.37E-02
3.5625,6.90E-02
3.563,6.46E-02
3.5635,6.05E-02
3.564,5.67E-02
3.5645,5.32E-02
3.565,5.00E-02
3.5655,4.70E-02
3.566,4.43E-02
3.5665,4.18E-02
3.567,3.95E-02
3.5675,3.75E-02
3.568,3.56E-02
3.5685,3.39E-02
3.569,3.24E-02
3.5695,3.11E-02
3.57,2.99E-02
3.5705,2.89E-02
3.571,2.80E-02
3.5715,2.73E-02
3.572,2.67E-02
3.5725,2.62E-02
3.573,2.58E-02
3.5735,2.55E-02
3.574,2.53E-02
3.5745,2.52E-02
3.575,2.52E-02
3.5755,2.53E-02
3.576,2.55E-02
3.5765,2.57E-02
3.577,2.60E-02
3.5775,2.64E-02
3.578,2.69E-02
3.5785,2.74E-02
3.579,2.80E-02
3.5795,2.87E-02
3.58,2.94E-02
3.5805,3.01E-02
3.581,3.10E-02
3.5815,3.18E-02
3.582,3.27E-02
3.5825,3.37E-02
3.583,3.46E-02
3.5835,3.57E-02
3.584,3.67E-02
3.5845,3.77E-02
3.585,3.88E-02
3.5855,3.98E-02
3.586,4.08E-02
3.5865,4.18E-02
3.587,4.27E-02
3.5875,4.35E-02
3.588,4.42E-02
3.5885,4.47E-02
3.589,4.50E-02
3.5895,4.50E-02
3.59,4.47E-02
3.5905,4.40E-02
3.591,4.28E-02
3.5915,4.09E-02
3.592,3.82E-02
3.5925,3.46E-02
3.593,3.00E-02
3.5935,2.40E-02
3.594,1.67E-02
3.5945,7.97E-03
3.595,-2.20E-03
3.5955,-1.35E-02
3.596,-2.54E-02
3.5965,-3.69E-02
3.597,-4.69E-02
3.5975,-5.37E-02
3.598,-5.61E-02
3.5985,-5.29E-02
3.599,-4.33E-02
3.5995,-2.67E-02
3.6,-1.97E-03
3.6005,3.30E-02
3.601,8.27E-02
3.6015,1.57E-01
3.602,2.74E-01
3.6025,4.43E-01
3.603,5.58E-01
3.6035,5.21E-01
3.604,4.24E-01
3.6045,3.32E-01
3.605,2.58E-01
3.6055,2.02E-01
3.606,1.58E-01
3.6065,1.23E-01
3.607,9.56E-02
3.6075,7.32E-02
3.608,5.45E-02
3.6085,3.85E-02
3.609,2.44E-02
3.6095,1.16E-02
3.61,-4.10E-04
3.6105,-1.22E-02
3.611,-2.41E-02
3.6115,-3.68E-02
3.612,-5.06E-02
3.6125,-6.63E-02
3.613,-8.42E-02
3.6135,-1.05E-01
3.614,-1.29E-01
3.6145,-1.55E-01
3.615,-1.83E-01
3.6155,-2.10E-01
3.616,-2.34E-01
3.6165,-2.51E-01
3.617,-2.59E-01
3.6175,-2.60E-01
3.618,-2.54E-01
3.6185,-2.43E-01
3.619,-2.28E-01
3.6195,-2.11E-01
3.62,-1.92E-01
3.6205,-1.73E-01
3.621,-1.55E-01
3.6215,-1.37E-01
3.622,-1.19E-01
3.6225,-1.02E-01
3.623,-8.50E-02
3.6235,-6.90E-02
3.624,-5.34E-02
3.6245,-3.81E-02
3.625,-2.31E-02
3.6255,-8.22E-03
3.626,6.50E-03
3.6265,2.11E-02
3.627,3.57E-02
3.6275,5.01E-02
3.628,6.42E-02
3.6285,7.79E-02
3.629,9.08E-02
3.6295,1.03E-01
3.63,1.13E-01
3.6305,1.22E-01
3.631,1.28E-01
3.6315,1.33E-01
3.632,1.35E-01
3.6325,1.36E-01
3.633,1.34E-01
3.6335,1.31E-01
3.634,1.27E-01
3.6345,1.22E-01
3.635,1.17E-01
3.6355,1.11E-01
3.636,1.05E-01
3.6365,9.89E-02
3.637,9.31E-02
3.6375,8.75E-02
3.638,8.21E-02
3.6385,7.70E-02
3.639,7.22E-02
3.6395,6.77E-02
3.64,6.35E-02
3.6405,5.95E-02
3.641,5.59E-02
3.6415,5.26E-02
3.642,4.95E-02
3.6425,4.67E-02
3.643,4.41E-02
3.6435,4.18E-02
3.644,3.97E-02
3.6445,3.78E-02
3.645,3.61E-02
3.6455,3.46E-02
3.646,3.33E-02
3.6465,3.21E-02
3.647,3.11E-02
3.6475,3.02E-02
3.648,2.95E-02
3.6485,2.89E-02
3.649,2.84E-02
3.6495,2.81E-02
3.65,2.78E-02
3.6505,2.77E-02
3.651,2.77E-02
3.6515,2.77E-02
3.652,2.79E-02
3.6525,2.81E-02
3.653,2.85E-02
3.6535,2.89E-02
3.654,2.93E-02
3.6545,2.99E-02
3.655,3.05E-02
3.6555,3.12E-02
3.656,3.19E-02
3.6565,3.27E-02
3.657,3.35E-02
3.6575,3.44E-02
3.658,3.53E-02
3.6585,3.62E-02
3.659,3.71E-02
3.6595,3.80E-02
3.66,3.89E-02
3.6605,3.98E-02
3.661,4.06E-02
3.6615,4.13E-02
3.662,4.19E-02
3.6625,4.23E-02
3.663,4.25E-02
3.6635,4.24E-02
3.664,4.20E-02
3.6645,4.11E-02
3.665,3.97E-02
3.6655,3.77E-02
3.666,3.48E-02
3.6665,3.10E-02
3.667,2.62E-02
3.6675,2.01E-02
3.668,1.27E-02
3.6685,3.86E-03
3.669,-6.20E-03
3.6695,-1.72E-02
3.67,-2.84E-02
3.6705,-3.89E-02
3.671,-4.75E-02
3.6715,-5.27E-02
3.672,-5.32E-02
3.6725,-4.82E-02
3.673,-3.67E-02
3.6735,-1.81E-02
3.674,8.90E-03
3.6745,4.69E-02
3.675,1.01E-01
3.6755,1.84E-01
3.676,3.13E-01
3.6765,4.78E-01
3.677,5.54E-01
3.6775,4.94E-01
3.678,3.98E-01
3.6785,3.11E-01
3.679,2.42E-01
3.6795,1.89E-01
3.68,1.48E-01
3.6805,1.16E-01
3.681,8.96E-02
3.6815,6.82E-02
3.682,5.01E-02
3.6825,3.46E-02
3.683,2.07E-02
3.6835,7.86E-03
3.684,-4.45E-03
3.6845,-1.68E-02
3.685,-2.96E-02
3.6855,-4.36E-02
3.686,-5.92E-02
3.6865,-7.72E-02
3.687,-9.81E-02
3.6875,-1.22E-01
3.688,-1.50E-01
3.6885,-1.79E-01
3.689,-2.09E-01
3.6895,-2.35E-01
3.69,-2.54E-01
3.6905,-2.64E-01
3.691,-2.66E-01
3.6915,-2.61E-01
3.692,-2.49E-01
3.6925,-2.34E-01
3.693,-2.16E-01
3.6935,-1.97E-01
3.694,-1.78E-01
3.6945,-1.59E-01
3.695,-1.40E-01
3.6955,-1.22E-01
3.696,-1.04E-01
3.6965,-8.72E-02
3.697,-7.08E-02
3.6975,-5.48E-02
3.698,-3.92E-02
3.6985,-2.39E-02
3.699,-8.70E-03
3.6995,6.35E-03
3.7,2.13E-02
3.7005,3.62E-02
3.701,5.10E-02
3.7015,6.55E-02
3.702,7.95E-02
3.7025,9.28E-02
3.703,1.05E-01
3.7035,1.16E-01
3.704,1.24E-01
3.7045,1.31E-01
3.705,1.35E-01
3.7055,1.38E-01
3.706,1.38E-01
3.7065,1.36E-01
3.707,1.33E-01
3.7075,1.29E-01
3.708,1.23E-01
3.7085,1.18E-01
3.709,1.12E-01
3.7095,1.06E-01
3.71,9.97E-02
3.7105,9.38E-02
3.711,8.81E-02
3.7115,8.26E-02
3.712,7.74E-02
3.7125,7.25E-02
3.713,6.79E-02
3.7135,6.36E-02
3.714,5.96E-02
3.7145,5.59E-02
3.715,5.24E-02
3.7155,4.92E-02
3.716,4.63E-02
3.7165,4.36E-02
3.717,4.12E-02
3.7175,3.90E-02
3.718,3.70E-02
3.7185,3.52E-02
3.719,3.35E-02
3.7195,3.21E-02
3.72,3.08E-02
3.7205,2.97E-02
3.721,2.87E-02
3.7215,2.79E-02
3.722,2.72E-02
3.7225,2.66E-02
3.723,2.61E-02
3.7235,2.57E-02
3.724,2.55E-02
3.7245,2.53E-02
3.725,2.52E-02
3.7255,2.53E-02
3.726,2.54E-02
3.7265,2.56E-02
3.727,2.58E-02
3.7275,2.62E-02
3.728,2.66E-02
3.7285,2.71E-02
3.729,2.76E-02
3.7295,2.82E-02
3.73,2.89E-02
3.7305,2.96E-02
3.731,3.04E-02
3.7315,3.12E-02
3.732,3.21E-02
3.7325,3.30E-02
3.733,3.40E-02
3.7335,3.49E-02
3.734,3.60E-02
3.7345,3.70E-02
3.735,3.80E-02
3.7355,3.91E-02
3.736,4.01E-02
3.7365,4.11E-02
3.737,4.20E-02
3.7375,4.29E-02
3.738,4.37E-02
3.7385,4.43E-02
3.739,4.48E-02
3.7395,4.50E-02
3.74,4.50E-02
3.7405,4.45E-02
3.741,4.37E-02
3.7415,4.22E-02
3.742,4.01E-02
3.7425,3.72E-02
3.743,3.33E-02
3.7435,2.82E-02
3.744,2.19E-02
3.7445,1.41E-02
3.745,4.93E-03
3.7455,-5.63E-03
3.746,-1.72E-02
3.7465,-2.91E-02
3.747,-4.03E-02
3.7475,-4.94E-02
3.748,-5.50E-02
3.7485,-5.57E-02
3.749,-5.06E-02
3.7495,-3.89E-02
3.75,-1.99E-02
3.7505,7.71E-03
3.751,4.66E-02
3.7515,1.03E-01
3.752,1.88E-01
3.7525,3.23E-01
3.753,4.93E-01
3.7535,5.60E-01
3.754,4.92E-01
3.7545,3.93E-01
3.755,3.07E-01
3.7555,2.39E-01
3.756,1.87E-01
3.7565,1.46E-01
3.757,1.14E-01
3.7575,8.82E-02
3.758,6.70E-02
3.7585,4.92E-02
3.759,3.39E-02
3.7595,2.03E-02
3.76,7.80E-03
3.7605,-4.09E-03
3.761,-1.59E-02
3.7615,-2.80E-02
3.762,-4.10E-02
3.7625,-5.53E-02
3.763,-7.16E-02
3.7635,-9.04E-02
3.764,-1.12E-01
3.7645,-1.37E-01
3.765,-1.64E-01
3.7655,-1.92E-01
3.766,-2.18E-01
3.7665,-2.40E-01
3.767,-2.54E-01
3.7675,-2.61E-01
3.768,-2.59E-01
3.7685,-2.51E-01
3.769,-2.38E-01
3.7695,-2.22E-01
3.77,-2.05E-01
3.7705,-1.86E-01
3.771,-1.68E-01
3.7715,-1.49E-01
3.772,-1.31E-01
3.7725,-1.13E-01
3.773,-9.63E-02
3.7735,-7.99E-02
3.774,-6.40E-02
3.7745,-4.85E-02
3.775,-3.33E-02
3.7755,-1.83E-02
3.776,-3.51E-03
3.7765,1.12E-02
3.777,2.58E-02
3.7775,4.03E-02
3.778,5.46E-02
3.7785,6.86E-02
3.779,8.21E-02
3.7795,9.47E-02
3.78,1.06E-01
3.7805,1.16E-01
3.781,1.24E-01
3.7815,1.30E-01
3.782,1.34E-01
3.7825,1.36E-01
3.783,1.35E-01
3.7835,1.33E-01
3.784,1.30E-01
3.7845,1.26E-01
3.785,1.20E-01
3.7855,1.15E-01
3.786,1.09E-01
3.7865,1.03E-01
3.787,9.70E-02
3.7875,9.13E-02
3.788,8.58E-02
3.7885,8.05E-02
3.789,7.54E-02
3.7895,7.07E-02
3.79,6.63E-02
3.7905,6.22E-02
3.791,5.84E-02
3.7915,5.48E-02
3.792,5.16E-02
3.7925,4.86E-02
3.793,4.59E-02
3.7935,4.34E-02
3.794,4.11E-02
3.7945,3.91E-02
3.795,3.72E-02
3.7955,3.56E-02
3.796,3.41E-02
3.7965,3.29E-02
3.797,3.17E-02
3.7975,3.08E-02
3.798,2.99E-02
3.7985,2.93E-02
3.799,2.87E-02
3.7995,2.83E-02
3.8,2.80E-02
3.8005,2.78E-02
3.801,2.77E-02
3.8015,2.77E-02
3.802,2.78E-02
3.8025,2.79E-02
3.803,2.82E-02
3.8035,2.85E-02
3.804,2.90E-02
3.8045,2.95E-02
3.805,3.00E-02
3.8055,3.07E-02
3.806,3.14E-02
3.8065,3.21E-02
3.807,3.29E-02
3.8075,3.37E-02
3.808,3.46E-02
3.8085,3.55E-02
3.809,3.64E-02
3.8095,3.74E-02
3.81,3.83E-02
3.8105,3.92E-02
3.811,4.00E-02
3.8115,4.08E-02
3.812,4.15E-02
3.8125,4.20E-02
3.813,4.24E-02
3.8135,4.25E-02
3.814,4.24E-02
3.8145,4.18E-02
3.815,4.08E-02
3.8155,3.93E-02
3.816,3.70E-02
